DOY2,HR2,H,LE,FC,TAU,CO2,H2O,WS,USTAR,TA,RH,PA,VPD,TS_1_1_1,TS_1_2_1,TS_1_3_1,G_1_1_1,G_1_2_1,G_1_3_1,NETRAD,PPFD_IN
1,0.25,18.0316016695,139.82364373,6.362346744,-0.004849465,529.1717880725,13.93728129725,4.2139484499,0.511361081575,15.93590493425,97.23136175,97.5997106755,11.92263593075,14.73967308,14.3148303335,13.4142950675,-2.042890425175,-5.835312583,-4.655850108,-6.939564283175,0.071642367
1,0.75,14.04839563175,39.7521146169999,12.07301827,-0.005298493875,501.7823580875,13.7053711385,4.136866181625,0.43815436785,16.4777396825,97.26620125175,97.57011677225,12.328307754,14.69437075175,14.2306119165,13.3239501665,-1.995548883,-6.62908603335,-5.485382875175,-7.133645974825,0.082799251675
1,1.25,26.51572698975,34.12488067725,4.811257438,-0.00706148915,501.857226875,13.2245319145,3.274110410675,0.39381108505,15.7491908335,96.2482670835,97.5553889205,11.8216124315,14.68834217,14.14854267,13.14090325,-2.273179866825,-7.185074633175,-5.841744891825,-7.47616695,0.065583888675
1,1.75,12.95104660775,57.208687839,12.421792362725,-0.00392238495,498.949468235,13.03453907475,3.542371144425,0.5589421682,15.1897103175,96.49236149825,97.529037006,12.040076609,14.65869474825,14.09834924825,12.97254691825,-2.673956949825,-7.64925384165,-6.342830092,-8.59732271665,0.062935363675
1,2.25,29.51932893175,50.27139895,6.9472034314,-0.0020809442,487.918396795,12.74861379075,3.6931721133,0.429800908525,14.73235768575,96.6288430835,97.519580597,10.7799218125,14.59334250175,14.01463983,12.92123575,-2.491218374825,-8.348187450175,-6.769962892,-9.81227668335,0.07247006785
1,2.75,69.4789440575,53.20150003025,7.556336295125,-0.0022814079,442.455262485,12.53880726525,3.3299572401,0.43435777345,15.37839999825,96.6172099165,97.51146484525,11.37578411,14.49492875175,13.9370884165,12.82910066825,-2.341789550175,-7.981290842,-7.050305608175,-9.501909499825,0.070251929675
1,3.25,15.781675493825,58.2977985709999,8.61093176899999,-0.002961664,485.793604815,12.86003507,3.727149030725,0.44699626645,15.31041258,96.63776483175,97.505254079,11.15825901025,14.41851350175,13.87641067,12.70297325175,-2.250448750175,-7.54548525,-6.89135960835,-8.94549445835,0.06363060285
1,3.75,32.735930553,128.11241021,8.862203009325,-0.00436222625,454.8230513,13.00253734725,3.833942624225,0.435264405975,14.9418634325,96.70756250175,97.502017906,9.608874433,14.40422275,13.80039017,12.65935625,-1.968864892,-6.56512149165,-6.464081725,-8.67653818335,0.0676034
1,4.25,12.857406457,45.975958285,5.232053011,-0.00480025275,461.218956285,12.8997829745,3.476336489175,0.639019683249999,14.63925368075,96.67869858175,97.500850164,10.49720500875,14.39162849825,13.7207124165,12.63526125175,-2.083100566825,-6.130210525175,-6.050454633175,-7.630791625,0.0582673905
1,4.75,26.625712672,54.182924226,10.79167376,-0.002919368225,481.283156575,13.021158291,3.79778062185,0.511949499925,14.01529493425,96.7182650835,97.51123264125,9.72217053325,14.35953267,13.67573767,12.5847683335,-1.93345996665,-6.830003567,-5.785518349825,-9.286525475175,0.0643258165
1,5.25,14.65629632975,78.631056617,10.424312734875,-0.002920828375,482.027225535,13.0890819475,3.6083144903,0.504025611275,14.78763891825,96.07054542,97.53697831475,10.2056338555,14.3369765835,13.63092391825,12.49518849825,-1.851092192,-6.493250333,-5.569058950175,-7.954317658,0.06627914215
1,5.75,13.030758038,78.1142850719995,5.267771950625,-0.00470792685,446.46059221,13.07982021075,3.84024674845,0.5094593031,15.07016099825,95.4352545,97.58767576575,10.48046535925,14.26325216825,13.57730375,12.48441831575,-1.77160634165,-6.329827425,-5.53056229165,-12.59375672675,0.062438794325
1,6.25,0.132923272349998,55.55624232,5.67095826395,-0.00376654315,452.56210479,12.8654222465,3.4462849331,0.521130038175,14.44841624825,95.98268191825,97.621326476,9.9057377805,14.25418758175,13.5320768335,12.39967193075,-1.732732524825,-6.21528869165,-5.597927099825,-13.51653950175,0.292760638
1,6.75,20.516432041,64.1372515359998,10.80834902475,-0.00715647435,476.1539792475,12.84860154925,3.526341720825,0.52314818215,14.53189675,96.17620658175,97.63392111875,11.02138022325,14.22358274825,13.41095716825,12.29325125175,-1.799451108175,-6.681499449825,-5.72096001665,-6.70904739235,18.0719624665
1,7.25,28.9274747364999,165.05541131,10.34709212625,-0.003994902575,438.2093025,12.88918688,6.11195812435,0.779619853875,15.66182525,95.73755675175,97.66047937325,11.25032579125,14.18806699825,13.32606642,12.26222525175,-1.925159325,-6.334967558,-5.571532950175,3.813656808,79.25629758175
1,7.75,19.87745933875,170.450511075,3.7117559518,-0.0042356443,462.181425575,13.06918391275,5.534413403925,0.69479931285,14.79475793425,95.59759808,97.682154817,10.8748024935,14.16686424825,13.2934396665,12.38236218425,-1.5513850045,-4.479803374825,-4.78858178335,32.8066736915,168.898045835
1,8.25,30.67477585875,119.3486328625,4.857666266275,-0.0043778577,445.20013673,13.487782891,5.27784004909999,0.8004621024,15.0701055,96.0931438315,97.73587632,11.9589325685,14.14716283,13.27134917,12.5577653465,-0.400958518300001,-0.597143873500003,-2.83970856670001,61.6730351685,296.8086033
1,8.75,47.58797681375,133.2939175,1.55327385355,-0.003085186775,440.053615865,14.153273157,4.806461754025,0.671866716599999,16.69795476225,96.43557141525,97.82484857225,16.05051586575,14.09738191525,13.2558324995,12.8023153475,2.45934433299999,6.09864856749999,-0.152085112775002,215.16118524,726.3034633475
1,9.25,123.182430235,153.394846345,4.30842181410001,-0.00711901035,491.3569301475,16.304677495,4.99384272035,0.8088022138,18.17996306925,93.68294425125,97.825794465,20.918741326,14.05392958175,13.20020383,12.9865635,5.018327958175,13.85931037325,4.34262753335,291.9009941825,927.0777500175
1,9.75,147.3207294725,162.5575892975,-0.588208982999999,-0.00616448675000002,511.46361314,15.516805394,4.85939642555,0.8157107563,19.37420868425,92.55773492,97.80725909475,24.20119247375,14.0426585835,13.1844248335,13.19696893075,7.82110083335,19.87121791825,8.479515366825,351.213636685,1087.88289815
1,10.25,136.633713825,177.18320262,3.98159653369999,-0.005505046525,483.1923252,15.19856436275,4.557293407375,0.728894639025,20.53039991825,93.34159324825,97.7864334805,24.544645706,14.0202833335,13.23607517,13.7324295,10.314942766825,32.39300717,13.12727084325,403.238624985,1222.788283
1,10.75,151.2516732975,164.522447695,1.21084080337499,-0.0089917934,474.548029845,14.20674142,5.361597083175,0.7415111528,21.38131206925,91.2320386665,97.749028964,24.1917383995,13.9882480835,13.30631399825,14.2298296825,12.3405588335,53.8153135,21.29778633175,438.9865883475,1325.901308175
1,11.25,179.082300795,181.24258916,-0.806020092174999,-0.01478238145,476.3558204475,14.35647874025,5.297167420575,0.7704671317,22.0319491665,91.54352417,97.70860944175,25.206661434,14.01239458,13.3989453335,14.8399309325,14.21312583,73.27868091825,34.8324768335,473.61071999,1400.0985334
1,11.75,182.87960565,167.7618087825,11.1194180705,-0.00678573875000001,457.120548135,14.736675909,5.65542152375,0.743727925025,22.620781,90.50853933,97.63379755325,26.447639974,14.05633024825,13.49987291825,15.51892249825,16.6825054165,88.2301636665,47.52869892,477.4732567,1436.892583
1,12.25,197.927070445,175.81758475,8.236780542375,-0.02213909045,468.5311065175,15.09606612725,6.3333889378,0.794494146975,23.21950375,88.8724146685,97.57762524225,27.692221764,14.0649086665,13.68161149825,16.2329365,17.0630449165,99.1759338135,56.020373332,473.4646874875,1440.359917
1,12.75,176.0366291,167.348265,2.3909398056,-0.023373752875,443.550493385,15.1762208585,6.284197237,0.848818840675,23.37595341825,88.8119233315,97.54946563425,26.948110754,14.08604758,13.90829167,17.305950165,18.06017533175,105.0057083,63.0035893315,447.962783325,1399.606541875
1,13.25,197.4246663475,186.58326399,2.97796281974999,-0.0139435885,455.8608359025,15.83964029475,6.109550489,0.882069711,23.4673698175,90.57789367,97.49709662475,26.38924335025,14.1462434165,14.26403325,18.9922567325,19.84433191825,106.59989333,67.623710668,414.51132,1334.19534985
1,13.75,183.840780925,140.0298499175,-0.373673884025003,-0.0136966204,502.7447246475,15.8966252485,6.557062202525,0.752330432125,23.6567245675,91.2338025,97.48335455225,25.4480518005,14.2475646665,14.56569375175,20.4242317,23.6980761665,104.62544333,70.2123230015,369.910736685,1232.756217
1,14.25,166.99202874,203.40523378,0.979323756424993,-0.016253605675,436.29723524,15.5301618285,6.64930964295,0.759294535125,23.56762975,90.96617725175,97.47583491725,25.564705186,14.41012733175,14.75430550175,21.319496515,30.90243199825,99.8035893165,69.719285333,313.89257667,1107.10721685
1,14.75,153.73500702,144.46012374,1.196701489525,-0.02223398285,465.66382842,15.39704338875,6.3411352398,0.6383897778,23.52917949825,91.9687475835,97.4770996245,26.0358308755,14.57313008,15.11820033175,21.868246985,37.89712066775,89.84018867,66.2567673335,253.517665015,943.1334033
1,15.25,131.8766918025,129.7886987125,0.906538068024998,-0.0228712956,434.7487168075,15.55634178575,4.935291791,0.6850003141,23.10537033,91.71583142,97.467513279,25.46093768125,14.693294,15.5111308335,21.964579515,41.505312999,79.1851190015,56.34766783175,181.7752042,778.6026058175
1,15.75,83.508576295,122.343008675,0.862472770075,-0.0094353382,448.814747915,15.400182831,5.664927177125,0.7135118992,21.8496243335,93.1010114165,97.46146413,22.2611377605,14.78146241825,15.8281900835,21.446170485,38.96510008525,64.18492616825,36.73479000175,102.16048008175,574.8459624825
1,16.25,65.35079460925,101.34219351,1.42877858885,-0.01441371325,446.532449325,15.55077614275,6.09327411645,0.75380465655,20.98523625175,94.43897775,97.466117373,20.807507417,14.8467896665,16.02072216825,20.5749992,30.91108925,48.4720523335,23.78008792,44.72829115425,371.9172991825
1,16.75,16.496087374,93.382160995,2.7803233731,-0.00503934365000001,464.7080279425,15.56720722,5.4655515234,0.6621072311,20.1912020835,95.087525,97.4675064085,18.07618826875,14.94615850175,16.16893381425,19.568116915,21.22587667,30.42365891825,16.5228751665,-1.569464793825,151.76719595
1,17.25,4.39756128384999,70.31382220875,3.68255363405,-0.00695669955,451.73680186,14.535782464,5.7762753447,0.642776324,18.74103433175,96.12654974825,97.492941949,15.128291993,15.09504191825,16.2215644825,18.4959254325,10.75762074825,14.6186747,9.76003227325,-11.29514785675,24.5000459585
1,17.75,69.6943009879999,81.5831748844999,4.1393080021,-0.0040787758,500.38788137,14.37613265075,5.220740244,0.787938507325,17.92585200175,96.55575974825,97.5386561425,14.44828626525,15.16692392,16.2369258175,17.43611645,5.221942275175,3.45790530835,4.966482383,-11.78779402325,0.47362125215
1,18.25,1.7653535248,47.84922871,9.101585693325,-0.00208937035,440.802157025,14.38267538525,4.9565161296,0.68624818715,17.52120750175,95.23894767,97.5566150195,13.51504565925,15.27441700175,16.1838487325,16.58876715075,1.624744115,0.569274073349999,2.688485041825,-13.0205899415,0.075681405825
1,18.75,2.162832922125,134.354490482,7.9341232718,-0.003901019825,472.4050523525,14.2843998855,4.16440063765,0.616741024175,16.81292993075,95.48749666825,97.582809174,13.44066228225,15.29926008,16.085013415,15.97741709925,0.420869329999999,-1.644837460675,1.07041592,-11.8839601665,0.06690818665
1,19.25,1.20609497085,190.33826432125,10.36172951825,-0.001582810625,440.627488415,14.20832333025,3.47907954245,0.557112123,16.14634458,95.64238149825,97.618129833,13.2932524745,15.2924645,15.96755375,15.48583800175,0.268541279499999,-3.13425048732501,-0.0512594650500006,-11.14570589325,0.064259609325
1,19.75,2.010565205825,58.071240465,7.84521316445,-0.003168455175,470.92492522,14.2416174135,3.775529384175,0.5932268497,17.1390401665,95.2497739165,97.628811621,12.88510206075,15.24538767,15.84977859925,15.12524375,0.145682539674999,-3.68172579982501,-0.884869236175002,-13.91130541825,0.07415848
1,20.25,-0.566158084375,60.80356970875,10.785258835,-0.002278799325,448.772540115,13.90543775975,4.16904380555,0.577018724775,17.71082216825,94.97501941825,97.614825131,12.97280965375,15.20473392,15.69756306425,14.80291733,-0.236652248175001,-3.359488783,-1.50868738415,-13.27284565675,0.05568505265
1,20.75,23.86477072775,58.8595470355,5.913618034475,-0.001429703275,475.98364372,13.993266197,4.862387904275,0.6401963724,16.46814408175,95.64253742,97.62468433075,13.2034655605,15.18530125175,15.57761075,14.55998483175,-0.592707640000001,-3.5404231,-2.160119166825,-7.022125142,0.066345322325
1,21.25,8.64262176507498,63.368204234,6.0302800687,-0.003032060175,498.77151083,13.93316438075,3.8956120451,0.545744079775,16.4621683335,96.559616,97.63536445825,12.70207403625,15.12222375175,15.38033433175,14.3496306665,-0.750841126825,-3.716387741825,-2.47944584165,-9.650716575175,0.061611114
1,21.75,6.09847426244999,66.8589565495,8.40786866972499,-0.00173134635,443.39664962,13.88211665975,4.95092914105,0.6196587073,16.07449400175,96.52040283175,97.6368000455,11.551870893,15.09009275,15.22902675,14.1023185,-1.0296592245,-3.70741178335,-3.048752100175,-9.044864975175,0.0690421135
1,22.25,12.0001267057,44.0009364325,7.946292777375,-0.002902403125,462.12654888,13.968271863,4.235306191875,0.607497531375,16.19224717,96.60380158,97.62913930975,12.01306617675,15.00465208175,15.04154983175,13.975549,-0.751958042675,-3.519267058,-3.010849350175,-10.226881306575,0.065650115325
1,22.75,5.58880488109998,66.8475700725,5.84015426995,-0.0061419873,459.511305785,14.03870995075,4.1808089283,0.514861162525,15.97461800175,96.71024849825,97.6379030415,12.00685632125,14.97470216825,14.88314700175,13.92887,-0.691656704325,-3.759878200175,-3.074241958,-8.334098967,0.061611121675
1,23.25,24.02175481775,52.0577932069999,9.38930524465,-0.004564053925,470.182131085,14.07211581075,4.150299681875,0.5162058231,15.4193369165,97.06171916825,97.6291884055,10.924836018,14.94461191825,14.73890525175,13.82518300175,-0.74660886915,-4.451226983,-3.302243,-9.08504062482501,0.067040557175
1,23.75,13.1187514065,75.20618043775,6.26000360975,-0.00456099835,478.50226058,14.04908111125,4.053396252625,0.575944459675,16.25627949825,97.2207195835,97.61475404175,11.45958067725,14.87060841825,14.59697841825,13.7390925,-0.9158166225,-4.600689325175,-3.8812483,-8.17870805835,0.068214749175
2,0.25,108.74297816425,128.0634022725,5.5400775157,-0.00130862315,444.7808539725,13.3825405665,3.68174039765,0.4314983361,19.8658215175,96.0754433335,97.55659206875,19.0155091755,17.560966,17.2904579325,15.283505835,-4.097123216825,-10.987973731575,-8.807181242,-9.936509556925,0.074286150325
2,0.75,14.90910419225,42.46542531,7.24239204052499,-0.00556987775,438.55804023,13.4814470935,3.57349815225,0.426438941625,19.434692415,95.5279989165,97.55792056975,17.662250898,17.4602689325,17.0951630175,14.959924835,-3.71915373335,-10.666504531925,-8.211092641825,-8.291738568075,0.06823240635
2,1.25,17.20989497525,47.908678266,8.80067054325,-0.005460068425,429.0169245,13.399653226,3.4933455118,0.414545784925,19.575923915,95.6696583335,97.5571707665,17.99061653,17.4036144325,16.9296503175,14.7133827675,-3.389429966825,-10.713645075,-7.86582325,-8.52576882482501,0.0629162995
2,1.75,9.93236594017499,76.08648133525,7.56231861624999,-0.004620086175,436.138062125,13.2862583955,3.160613183025,0.488304232775,19.1571005675,96.14811424825,97.5407460115,18.2396795015,17.2731382325,16.7691460175,14.489588165,-3.175181808175,-10.52540199825,-7.617229550175,-7.586731166825,0.068927649675
2,2.25,31.3150826235,163.117918255,4.1129630848,-0.002145943075,433.399459235,12.92444268475,3.49115265005,0.4667850671,18.8839239325,95.7886221665,97.528151687,18.37745498925,17.1327134325,16.613548915,14.2516421825,-3.066442200175,-10.6200573335,-7.360741908175,-9.386439393075,0.06558388665
2,2.75,14.66350621425,64.596804513,8.38633503405,-0.004663520825,440.6535068125,12.86981556575,3.663488309525,0.455438378275,18.997849,95.97761225175,97.5158853905,16.97969003775,17.0955348175,16.4398894325,14.17985425,-2.995106183175,-10.33321059325,-7.234505391825,-11.736554425175,0.065583869675
2,3.25,31.85342602075,37.9783075060001,5.1199795596,-0.003682891875,428.038500065,12.6310274205,3.83254051115,0.538705639725,18.63132775,96.81460091825,97.510201525,18.02846777775,16.9818802,16.299991835,14.0976972675,-2.989569016825,-10.125593868425,-7.070661042,-7.236967258175,0.062916303175
2,3.75,17.2040285085,34.8486903920001,8.3348073818,-0.0043786705,438.687441645,12.57116498,4.14960266605,0.4670956214,19.15177405,97.22999525,97.50617581425,18.2488332015,16.8347955175,16.188881,14.0768368175,-3.091771583175,-11.057479125175,-7.290639641825,-10.043243418075,0.0622401635
2,4.25,30.9897771765,61.2821461202499,8.94605354409999,-0.0038252881,426.3327701525,12.5460394075,4.188338770175,0.550686828725,19.708022165,96.99814367,97.505609561,18.3204453065,16.7666745,16.05899925,13.984878335,-3.743052474825,-11.423452618075,-8.636514966825,-12.885416505,0.071565
2,4.75,6.20749376029999,133.079871285,5.400929737825,-0.00310343870000001,425.88449185,12.4452413305,4.043782620925,0.54581074115,20.236322915,96.39521875,97.50321015875,18.424963167,16.693405585,15.9045875175,13.923917,-4.25607825,-12.277941581575,-9.008539683175,-12.67520920675,0.06293539685
2,5.25,35.94745809825,42.4002923429999,5.457187287875,-0.00582736125,418.94942611,12.804061571,3.77098167125,0.555508597775,19.137474165,96.38018049825,97.50049178475,16.899594257,16.6070915,15.8102317675,13.82850605,-4.344184875175,-12.79019867,-9.281606225175,-14.0926442085,0.069556640825
2,5.75,43.026644785,79.3029779529998,4.7758766076,-0.005660504625,439.374939995,12.70371948875,3.9513353417,0.555586642175,18.5803420675,96.17510067,97.50182465225,17.42567844525,16.5506267325,15.6508296825,13.7341777675,-4.259884575,-12.93578919325,-9.44204399325,-11.54686227325,0.1179914765
2,6.25,12.575602338475,86.9583074720004,5.46739336754999,-0.00779787355,440.529992685,12.708840856,3.202281606875,0.4563831395,18.6027043175,96.18829192,97.52465612825,18.07826849775,16.4263898,15.572483085,13.63237015075,-3.75141285835,-11.8357409,-8.818533808,-13.38588239325,12.62058154175
2,6.75,13.850717286525,79.734929415,4.859389579,-0.0051982766,429.610238875,12.86337586675,3.182585372075,0.3950025038,18.0642022,96.19845458,97.5463113905,16.559711869,16.3093547,15.41652695,13.51333815075,-3.222780450175,-10.581014368075,-8.12808475835,-3.50501468665001,70.64377525175
2,7.25,15.6988644655,108.61299006175,2.555905506075,-0.00411474715,423.70532679,13.64192379,2.680244503975,0.450190856775,17.6596664825,96.56819533,97.5701927355,14.74495681125,16.2712743,15.2735212,13.5017157325,-2.38861070835,-8.51699926807501,-6.986409842,20.30862101825,164.8983399825
2,7.75,23.82877906325,58.98514612,3.5003387986,-0.005245558475,422.69152675,13.25813846,2.922770081625,0.3279395853,17.4812423175,96.93705966825,97.583608466,14.63241161,16.216461335,15.2163467,13.67552625,-1.60109780835,-6.32495310817501,-5.490539274825,63.26929916825,302.603801
2,8.25,54.07727578125,175.40064806,0.92089608175,-0.005126358575,412.56063691,15.3902615575,3.096338113075,0.4042689118,18.8831675175,97.10455708175,97.61349411175,19.2246426975,16.098780165,15.1184224825,13.8531182325,0.618658433249998,-0.201086034175003,-3.821037500175,227.209003335,748.6960575
2,8.75,98.1948097599999,141.5379504,3.9316492408,-0.0049002064,434.176195515,18.9768295725,3.42039836075,0.44770982145,21.055897015,95.87043367,97.654002951,25.398065975,15.925576815,15.0801207,14.3046582,3.4990571833,5.31817310149998,-1.1417645495,311.119864985,965.59863333
2,9.25,115.094735865,173.6009769125,-3.03593972865,-0.00517544765,415.530728495,18.01697956125,4.32494134695,0.4987317232,22.794120835,95.87409233,97.6402309095,28.55580921775,15.895404835,15.0649717675,14.70883431425,5.034111567,9.875841166825,1.049403429275,383.753156665,1160.14114165
2,9.75,157.2336497475,175.0992261025,-0.986265979050005,-0.0064618724,440.3303883175,17.284892995,4.53153600385,0.5121912136,24.4579015,95.6426710835,97.642278467,30.442568247,15.88317905,15.080150915,15.29345400175,8.478398191825,23.42875584325,6.538982999825,459.4938900175,1355.711599825
2,10.25,185.817573315,235.353541975,-2.4589389335,-0.007768516075,427.23211446,17.15016958975,4.55698285765,0.637293782299999,25.7134755175,95.1085613335,97.624409312,31.58775317,15.8746884325,15.16007095,16.1028204825,11.8177001835,48.274325,13.58833542675,499.3244875,1468.980633
2,10.75,173.112318655,266.61762546,0.531346053749993,-0.01058805315,422.8924958875,16.312492836,5.240166232,0.621019987,26.932242,94.5984350015,97.616021606,36.101505656,15.860899915,15.2651733,16.78900793575,12.91727574825,71.73842742,23.3697933335,534.0081675,1582.529858175
2,11.25,190.13677455,252.87859824,-2.3087193503,-0.010387129875,412.62557694,16.231250964,4.80930656645,0.607680802725,28.0453575675,94.7713700015,97.58664344,37.52293320375,15.8719627325,15.412897585,17.5519047675,14.42133858,90.6659820835,37.03792175,570.0195824825,1653.651492
2,11.75,201.871678515,286.38632832,4.72177095880001,-0.0067194008,422.211361015,16.2530153685,4.891656234,0.677641323799999,28.8300299825,94.38956575,97.5346707305,39.860863041,15.87616625,15.600164,18.5728109325,15.27047558175,106.580499665,51.09585066825,558.5515783,1685.338100175
2,12.25,228.37548205,284.3090351375,0.535149596049988,-0.0295007552,420.7164560725,16.2403008925,4.673545052625,0.64059898475,29.4613916825,95.3250301665,97.4747589015,40.75265192875,15.8887920675,15.84659445,20.503002585,16.66769149825,117.6003375,62.88995741825,566.9388175,1689.622775175
2,12.75,228.42783379,270.59386629,-0.959347294625,-0.04623863715,412.3010269,16.399958772,5.05328536775,0.582212295375,29.57724267,94.6493493315,97.4120502655,39.966428385,15.95688595,16.2111777325,22.7717839325,19.92798841825,125.3299241825,72.46593967,571.239800835,1668.45766665
2,13.25,228.752548175,205.57190223,-2.3337638716,-0.046814534,434.953420555,16.5200595305,4.9498085689,0.565817896375,29.2457432,94.7388365015,97.36541564075,36.898419764,16.165313835,16.7250920675,24.6857060175,24.79929033175,129.3005342,78.695153332,504.250408335,1585.111025
2,13.75,224.741732915,219.14311483,0.247425354000002,-0.0685617678,443.3746084425,17.07771004375,5.66350156805,0.698072281475,29.23029067,94.68319200175,97.333776953,35.80679316075,16.3104902325,17.30754005,26.038856335,30.70665899825,127.59714167,82.92658083,456.8769117,1480.449258
2,14.25,227.68395251,292.35709069,-2.5549541964,-0.06855338465,416.0867482575,16.4739513305,5.504566259525,0.656259813425,29.317091915,93.21809475175,97.31568162175,36.5980083415,16.5770673175,17.95506555,26.59656555,44.17034283,121.366650835,84.40600208,431.6104775175,1372.33755335
2,14.75,190.107424025,222.82755924,-1.3171909562,-0.033926948275,406.27767683,16.36494308875,6.2168489776,0.582959524125,29.06950508175,92.37937967,97.32597717325,36.183403551,16.8148508,18.597414165,26.913747185,48.37382258575,112.3425775,82.76617441525,346.8618841825,1197.237033175
2,15.25,172.419804375,245.90349976,-0.337407756,-0.046902699625,415.830822935,17.000083335,5.84391623095,0.742380760625,28.4871295175,90.48479700175,97.332024536,35.34204147875,17.1109682675,19.1585509825,26.709830315,47.4210252485,101.6175089825,75.17042874825,273.5811825175,986.033706665
2,15.75,141.964153175,165.48344777,-0.143829804125,-0.0507050882,421.454223905,19.0107183785,5.35875311895,0.6241285938,28.3324897675,90.51959508,97.33762794175,35.7432997035,17.3550691825,19.6551935,25.907611585,47.380481001,84.48376475,62.44935917,196.8315429325,815.243734165
2,16.25,112.181487405,142.2133269625,2.14098196992499,-0.0323302736,431.9953114225,17.42184164675,5.52153374875,0.5403925204,27.58473595,91.92408983175,97.34652370975,35.01619847,17.6419801825,20.027984415,24.9039382675,46.6590964985,66.11268308175,46.9849289165,114.1605724825,562.2072008
2,16.75,80.3903301965,182.7194216875,2.41285513849999,-0.00991223420000001,426.266245895,17.2828807465,5.1191750132,0.53484053675,26.7567825675,91.22668174825,97.36821336725,32.661248012,17.8332626825,20.2142348,23.9222045675,38.2064735835,46.652623,33.6503586665,40.7070078892499,341.2037842
2,17.25,22.4168914525,126.1457967275,7.42167158360001,-0.0113083799,428.1026792325,16.125314945,4.525098092125,0.58561149795,25.0963778175,92.5725975,97.3958705655,26.088095375,18.0134647325,20.3327072,23.1371514825,25.76319933175,25.4448405,22.75907724825,-17.2941752335,137.3933303175
2,17.75,7.7472108443,309.100633185,9.1835429896,-0.0028486158,420.812114845,14.54879464125,4.308268013775,0.4976029786,24.1346777,93.69381108,97.42345677,22.68213042975,18.14608955,20.3765237325,22.260869585,12.7556725585,9.386103018575,14.072267395,-37.47089283175,17.048379325
2,18.25,0.28677423524999,53.7671935712493,9.19386986652499,-0.00430566085,427.170437835,14.36411073475,4.42273873105,0.5570166449,22.8777754825,95.2334416665,97.45689756375,21.41533884725,18.27602645,20.2953538175,21.3192855675,6.72793345835,-2.64383668725,6.697632050175,-26.30904458175,0.199598903675
2,18.75,1.9469578318,41.3803817582498,7.65852118559999,-0.0047015688,437.946924395,14.2505624845,4.555140509275,0.624735477125,21.7111279825,95.8672935015,97.4680153885,20.28132614075,18.4325027325,20.1863160175,20.408617335,2.76710095835,-8.16049657500001,0.895013250825,-20.30565591825,0.078197466
2,19.25,6.08625436914999,59.2329631155,10.670857457,-0.003987466,448.694512045,14.30542785075,4.159281448275,0.569923250425,22.09007125,96.0789765,97.499143811,19.1767966075,18.490673835,20.023943165,19.5854427325,0.126742683674999,-12.256707399825,-2.890987050175,-12.36763088175,0.0742246635
2,19.75,-0.645154606800006,74.2449712597498,7.647161127625,-0.003376605,440.76779984,14.035747177,4.2814461603,0.60653627465,20.3649711825,95.7653171685,97.5249265645,18.6737738965,18.7116665675,19.79446095,18.9569493225,-2.028932175,-13.49380275175,-5.411709041825,-17.41191242,0.073529452825
2,20.25,32.94960452875,102.029387721749,9.03458759469999,-0.00389795585,434.059947585,13.6346825725,3.729596883475,0.6210648506,21.2247185175,95.8554288335,97.53426669725,19.7123543675,18.50658705,19.5435452,18.3033216825,-2.84837764165,-14.29894608175,-6.961963116825,-9.73633575675,0.07687320285
2,20.75,4.13880754674999,288.207298495,7.87322753,-0.0039931359,437.081783355,13.66326718775,2.96377172045,0.4446350324,20.31916125,96.492475833,97.54923960025,19.2131283855,18.489402665,19.2873739825,17.7675818175,-3.759024242,-13.82779375175,-8.349149491825,-10.58977899325,0.072900426
2,21.25,-0.329219320350001,150.3198839,8.0058174898,-0.0052331111,445.3325963025,14.1132628105,3.079950364575,0.499008254525,20.4550725175,96.2487554985,97.56031106175,19.00630566525,18.4623465675,19.0341458,17.295137085,-4.497625916825,-12.5033465,-8.069409208,-8.52858765017501,0.066279119825
2,21.75,2.52499989059999,40.5631076465,7.2498924132,-0.00624347485,438.04668888,14.71992826575,3.1817084527,0.5130915192,20.6772972,96.242944,97.54176337175,19.358428035,18.3484723175,18.79984245,16.878274085,-4.621793675,-11.4217864165,-7.761576158175,-9.63934621842501,0.077071879825
2,22.25,18.9822366665,102.4332681725,8.13596418974999,-0.0035082447,427.0048486575,14.60086486075,3.3977081,0.552143759125,20.5104855175,94.28054725,97.54993300825,18.88556406925,18.23828395,18.572769665,16.4996563,-4.590997408175,-10.5424092,-7.71460999165,-15.69601959825,0.067537187
2,22.75,31.0820263637499,85.6522999560001,6.472447925125,-0.002615759575,422.949545885,13.936023278,3.9838885862,0.5639974738,20.0251125675,94.33501133175,97.55498219425,19.179054701,18.1538853175,18.3040289825,16.150487835,-4.852981850175,-10.46743103,-8.038484967,-16.84988425175,0.069556681675
2,23.25,15.552792054825,53.0686107329996,8.786652306,-0.0048075633,432.9763038375,13.890513284,3.101915414,0.40627924685,19.1058583175,95.59669316825,97.563102787,19.466031274,18.0832330175,18.0666425175,15.8726345,-5.390999983175,-11.76583874825,-8.839009074825,-12.19875242675,0.07283418035
2,23.75,20.121219577375,108.14924623,8.60019071264999,-0.00314403870000001,445.365447185,13.7793448785,4.09723723595,0.493863054025,19.6553146825,95.80842291825,97.55677092675,19.67935716,17.9656869325,17.85237675,15.6671952325,-5.678322175,-12.20176788175,-10.17137135,-9.482886325,0.064888673
3,0.25,21.936220635,45.4956488025,10.4174619405,-0.00294765495,444.972780355,13.6016021005,2.959504294375,0.336709581475,18.62886925175,97.04895708,97.24547109575,17.5946947345,20.50553895,20.0748428,18.67380681575,-5.502358024825,-19.0118538335,-10.496448974825,-10.554234249825,0.076174307675
3,0.75,22.451717713,37.1433191575,8.9026882794,-0.004498041275,445.789877875,13.817548512,2.617446521525,0.350107856075,18.7288760835,97.18967375175,97.220302402,17.418390838,20.3394210175,19.84077955,18.5027178175,-5.295675917,-20.45606567,-10.606799156925,-13.67809624825,0.071509974
3,1.25,6.75738787395,21.968526404,10.043481697425,-0.001699463675,425.3362822375,14.1161876585,2.729056533075,0.305378572875,18.68461881925,97.22301825175,97.2108722605,17.806305147,20.2203534325,19.63886355,18.2465903175,-5.094599149825,-21.69270233,-10.93157014325,-10.85040893,0.0768731955
3,1.75,8.14647718409999,79.7080182372499,11.882167225825,-0.00246581085,435.8369789,14.09466167925,2.48973282795,0.2969177599,18.2944024165,97.10030466825,97.1963579615,18.10468549725,20.1715147675,19.4148327325,18.007397,-4.966878341825,-22.18405267,-11.4565295835,-10.520591649825,0.068232422675
3,2.25,22.7303966616999,48.8479335464999,8.94885444745,-0.003861295475,441.70306394,13.775384277,2.509798010725,0.36032578115,18.39997975,97.09357767,97.16104851225,18.514111565,20.05551025,19.2349737325,17.7787774325,-5.017561267,-22.69088858,-11.87468675,-10.0127126,0.074357106
3,2.75,11.0249658179,115.264274615,7.106058573875,-0.00261260965,420.16620362,13.5238646175,2.285202664475,0.301079368225,18.33521149825,97.38383091825,97.126498418,17.63741648,19.897971165,19.08518084925,17.69340425175,-5.213709725,-22.78033216825,-11.9036975835,-12.203726049825,0.064259652825
3,3.25,15.72706615325,35.3098023245,6.681867960125,-0.00358086695,419.76801032,13.492532892,2.736514226925,0.3162348785,18.96812324825,97.5567755,97.09582004775,17.154187896,19.8157753175,18.91536084925,17.52154368075,-5.365037849825,-22.4844065835,-12.04170825175,-13.48440705675,0.067669581675
3,3.75,6.89180899185,59.445352805,10.1343823876,-0.00309863965,422.49067923,13.67441866,2.672272725125,0.279961956175,18.09122749825,97.64356492,97.09051650375,16.65082542375,19.6996654825,18.80932475,17.38736767,-5.490324467,-22.6993938335,-12.16309949825,-13.15850500675,0.07296663515
3,4.25,20.5463944178,38.86109659225,8.22401359904999,-0.004055983675,440.346404035,13.7909410025,2.449388872,0.2679897969,17.90387231925,97.6798083335,97.10254088575,17.439087257,19.519075585,18.6687784325,17.27836656575,-5.847467624825,-22.54301150175,-12.0910264165,-13.23370289325,0.0715761705
3,4.75,8.016811440625,76.76450120075,8.34093983255,-0.004816515575,420.8489323175,13.8879600445,2.54143619775,0.310908166075,17.87463383,97.71089016825,97.1159092675,16.683879337,19.4316799325,18.53679917,17.19011092,-6.21841021665,-22.0985474165,-11.97518608175,-12.336130131575,0.073661879175
3,5.25,89.97427360575,45.50553227475,9.17025152219999,-0.00192060125,416.3638279025,13.3786812305,2.539925287675,0.303593982475,17.97298058175,97.71104749825,97.124331432,16.6470499695,19.358031165,18.44840125175,17.0887255,-6.08325930835,-21.61033316825,-12.01405250175,-10.2452648165,0.496696283825
3,5.75,19.099426798,51.65983619775,7.0660681447,-0.003521058775,414.6984275275,12.7111648565,2.64710055795,0.2665023084,17.61449293425,97.68827083,97.141014816,16.7561784285,19.23670795,18.33678175,17.00654808,-5.609005300175,-21.10114958,-11.69939274825,-12.43718183,22.49634382675
3,6.25,54.9211685984999,74.512583157,9.57012174395,-0.002318273,415.4761612025,12.912426015,2.55496550125,0.28626443025,17.8028854325,97.5749770835,97.164271022,15.14492187925,19.0828852675,18.26205625,16.97591466825,-5.218210433,-20.75158642,-11.55009558,-3.207746408175,85.04568541825
3,6.75,134.992021205,47.80248506625,3.93519433815,-0.00274010555,415.878329555,13.16425613675,2.993940526275,0.34495710185,18.6000649165,96.97701091825,97.187959231,14.165537019,19.010495335,18.1716781665,16.9714371665,-4.97147540835,-20.0202215,-11.45075383,13.29666967475,191.7675733175
3,7.25,112.171858024,89.4440451475,3.260027178125,-0.0037531761,418.14467972,15.018996845,2.4581472982,0.410354520025,18.66429592,96.15785541825,97.214791805,14.231346748,18.9089350175,18.11957600175,17.02626208175,-4.65024691665,-17.67898774825,-10.82107695,144.2556700175,553.5873624825
3,7.75,75.422125735,153.50312078,-0.213942571450001,-0.003727837075,417.7481788625,17.122289175,2.50079482595,0.312233624075,19.42130306925,94.86511474825,97.28251711875,24.12848039925,18.84739393425,18.05094200175,17.31968849825,-2.767435914075,-11.54382032,-8.65581283335,256.6395,826.0178666825
3,8.25,108.71007597,163.58939566,1.69197452102499,-0.00328178585,413.7177667975,18.80749560225,3.047489410375,0.388792589025,21.37397383,91.9809389165,97.28784378475,28.87361059475,18.74679149825,18.00113317,17.63946141825,0.583177487349997,0.2043002645,-5.230390958175,344.9891174825,1058.174107325
3,8.75,148.7635878,157.39971736,6.21674542920002,-0.006823892,415.4787575225,17.270168328,3.4265338735,0.4405314812,22.513874,87.7246696685,97.3077111035,31.667284476,18.7016930015,18.0023830015,17.96001117,4.23467673199998,11.6217392815,0.9296063187,421.4991117,1267.12343315
3,9.25,171.6817060625,314.47596525,-3.821141424875,-0.00794834110000001,416.69420646,16.77579322675,3.715487668775,0.45198317935,24.039662985,87.604501167,97.30944104775,29.734248666,18.67194483,18.0276358315,18.477308833,5.68400573299999,21.873233,5.44288030015,495.98344833,1456.43046685
3,9.75,209.2474365675,242.25382416,-3.69323732515,-0.01136851215,411.002606325,15.74636514,4.034279841825,0.43482957785,25.691812,86.9241219165,97.297181171,30.619498176,18.6608738335,18.08137558175,18.83533300175,5.731849866825,43.56405375175,9.31260701665,548.451205,1612.792125175
3,10.25,215.722888545,311.73179488,-3.23118436805,-0.014550819975,412.23952121,14.6615731425,3.999495179975,0.4822857881,27.08788317,88.47614074825,97.2981278135,33.577918344,18.65538708175,18.17948700175,19.6563565,9.011613325175,70.85105208175,13.5720209165,583.359631665,1735.72525
3,10.75,246.9808334075,266.6176664325,-4.540622318375,-0.0147232705,428.137786825,14.70645907,4.421787280075,0.520384565725,28.1580078335,86.14537283175,97.28194800775,34.74329901525,18.66044374825,18.25859892,20.078847,9.158096983175,98.00664617,19.35246133175,625.2069700175,1829.416324825
3,11.25,257.896756335,296.9439390875,-3.00260495627501,-0.0185298489,407.1043216825,16.812812755,4.5331733473,0.53214591195,29.01463166825,88.4254003335,97.263102734,34.31281539325,18.68091783,18.37779183175,21.1021923335,12.06326679825,119.9042692,29.2187594165,638.9840824825,1892.106758175
3,11.75,255.81806531,281.182535975,2.10937007122498,-0.032026203625,405.5973578225,16.3768690695,4.32054112875,0.589854724675,28.75369416825,90.76523241825,97.24039596125,32.81782569,18.70609291825,18.55390608,22.90832681925,13.75827883175,135.4986783,49.1102485835,641.5531274825,1919.067667
3,12.25,264.199640905,319.4954602625,-2.7481060786,-0.0740876056,404.2627996925,15.934700394,4.48322947395,0.5871297719,28.67427716825,91.52741466825,97.22335666325,34.67547516575,18.74080008,18.76729675175,25.70170474825,14.7934108335,148.6501258,68.6075313335,629.6295000175,1912.466233
3,12.75,282.500400185,279.81943353,-5.16251178455,-0.07091411715,416.676220585,15.95801308175,4.342864188075,0.57410013805,28.62554542,84.92248416825,97.19344911475,34.10112284425,18.79251833,19.11299883,28.05922175175,20.21102125175,154.3816875175,83.32601724825,610.5415924825,1871.551758175
3,13.25,295.74187687,365.96141479,-5.0140524345,-0.0947910477,407.7220408025,16.2169943645,4.533128390925,0.564119333425,28.3150470835,78.39577783,97.17038646525,32.9020337535,18.90271500175,19.73645675,29.285875,25.72579983,147.0459658,94.053446,567.9818408175,1795.743467
3,13.75,292.49156819,286.1755071425,-3.9467973456,-0.1066763516,407.9711749075,16.343639535,4.494330900825,0.6009693472,27.5654655835,72.66715567,97.13895692725,33.2645417,19.08343725,20.48166449825,29.18991668575,55.05713233,143.7599875175,100.5606554985,524.1482867,1684.89466665
3,14.25,291.3616102625,294.470839805,-4.46243901815,-0.095213350125,410.03354398,17.026541478,4.87671460675,0.63957147305,27.6654425835,70.9531333335,97.1445846345,33.748647388,19.3514839825,21.1396793,29.4980208335,68.26408708,137.602595,103.111750015,457.1219333175,1552.507633175
3,14.75,247.159150725,237.691946525,-3.88389561795,-0.0829064746,407.3177915725,16.87789539,4.490073575,0.533588918425,27.27122867,70.2964028335,97.1421629435,34.235588134,19.61032345,21.62926340075,29.19875,71.5226865,128.445885,100.411827815,388.678755,1370.308000175
3,15.25,219.718619095,234.560996445,-3.213538904825,-0.0728210294,407.95904621,16.8463390615,4.49749196345,0.53955724405,27.2408634325,70.57830550175,97.134517468,33.90622602025,19.9324296825,22.12252624825,28.25722158175,67.966358,115.2058258,96.136685667,310.4476474825,1182.568249825
3,15.75,209.69654479,211.1560596375,-0.855103297450006,-0.06730316235,407.4498550725,16.81630210375,4.14579173085,0.53839858585,27.4029459325,72.1051400835,97.14271997875,33.748564085,20.2040860675,22.51815618425,27.56566024825,61.5140676685,98.32800106425,87.57664066825,255.6996206175,961.9276333175
3,16.25,165.698246765,170.692236,-2.3483693482,-0.063982369225,407.71266829,16.9583959725,3.91871136185,0.503697517,26.97426368075,76.63515758175,97.15861059925,30.5141780425,20.4365009825,22.75412500175,26.8252963175,52.7107960835,78.75394667,71.00314992,171.41203014,794.543394165
3,16.75,114.3115290475,141.83817818,-0.7502071896,-0.0308515166,411.1107303475,16.28384943375,3.63983212305,0.445809790675,25.61808756575,79.45155866825,97.1552312325,32.94869277,20.659535335,22.8665288335,26.15203484925,43.43737383,57.41185100175,45.31138358,103.00286395675,508.223433335
3,17.25,65.19568417,74.91219145125,0.5229955929,-0.00837479215,413.993247725,16.65187984,3.613603747325,0.449129840375,24.83241131575,81.44810249825,97.15306724325,22.952483722,20.8121866825,22.93858631575,25.31337542,32.96150424825,36.35488774825,28.90297391825,23.911641695,296.5157692
3,17.75,21.1054466475,76.6132629665,3.0894520157,-0.00435033665,414.83164025,14.84601902,4.0569956735,0.43175097755,23.351002,89.06895458175,97.15534810875,22.0561881555,20.97144375,22.95335356925,24.44676417,20.84722825175,14.8481236665,17.28589774825,-20.929076795,82.36761383
3,18.25,6.432527655025,60.106724579,8.89681714209999,-0.004926306125,409.33313958,13.61022131725,3.005774690025,0.390030963,21.86198381575,92.07165766825,97.17450738625,21.42272448575,21.0214004825,22.84893093575,23.53206175175,9.13972040835,-3.85393681625,8.514955608175,-18.62466392,5.862196165325
3,18.75,7.578103147025,47.355491324,10.80877857775,-0.00589798335,410.263320035,13.371387011,2.6204974713,0.325722738375,20.40289116825,93.31566458,97.2089015905,20.0984161045,21.0414025175,22.73454167,22.64845559925,4.062427008175,-12.8947768835,1.758374686,-22.26285817,0.0935257415
3,19.25,2.705943572575,115.24416992,8.02128961395,-0.0041877977,418.44396127,13.3645336175,2.415595908525,0.339264306425,20.1021298175,93.01374108,97.2295813095,19.7739251125,21.057459085,22.54852783175,21.8491717325,0.609399869925,-16.35431908175,-1.971708925075,-20.76192292,0.0788264845
3,19.75,2.136793477875,66.36062100625,9.995373598,-0.002595924125,417.987565525,13.35063877875,2.2998789176,0.254430204175,20.04692433,93.74076166825,97.2508358565,19.394356482,21.0703218,22.33169608175,21.16275791825,-1.3794400645,-16.69664942,-4.57744457517501,-20.35836017,0.076873185175
3,20.25,7.43184041892499,62.4581526475,7.110149485875,-0.002917323425,424.8946099625,13.24640848625,2.50795596045,0.309779434225,19.42161931925,94.67901967,97.25775714875,18.3210717325,21.061872415,22.0394615,20.61074743075,-2.39394591665,-17.38732799825,-6.121803783,-18.30024241825,0.082799212175
3,20.75,3.246602603125,41.7551600199999,7.436192586625,-0.002008774875,423.975010475,13.528588981,2.43957178435,0.313133619775,19.89117475175,95.40559624825,97.2630631255,18.4958472875,21.03985245,21.7913902325,20.13616606575,-2.872940724825,-17.85940749825,-6.934653641825,-15.90784358175,0.080150769325
3,21.25,1.499088150475,72.499744411,6.4999422104,-0.0032184406,425.9670803,13.557117208,2.3553645207,0.330993585475,20.26354118075,95.78936492,97.2556898645,18.038560982,20.9977520175,21.5595010175,19.8183678335,-3.087250967,-17.7827439165,-7.46755719165,-16.743921,0.077568435325
3,21.75,6.471511430325,45.1545522385,8.904043074125,-0.003761271775,440.2841275975,13.4136590775,2.6040257711,0.2888926871,20.04580075,96.04341366825,97.27439784325,18.60693848,20.9687005675,21.3192667325,19.5251354825,-3.717659267,-18.69926074825,-8.160334142,-17.07153149825,0.070185713825
3,22.25,12.187348758925,53.60190923125,11.1737611584,-0.002966902475,444.452133425,13.61596428125,2.709884361975,0.319217964625,19.77361242,96.25453949825,97.26505529425,18.13026360125,20.8873734325,21.0314548175,19.36477315075,-4.225245408,-20.02778692,-9.093145041825,-12.822855605,0.066362259675
3,22.75,31.06115645575,40.036520708,10.590037476,-0.005204429475,439.919751705,13.522275687,2.635410862675,0.322259475525,19.475172,96.5378765,97.26325390975,17.7466616685,20.7965085175,20.793262415,19.09245806425,-4.78079256665,-21.67385441825,-10.384182906575,-11.67185575,0.067537173
3,23.25,20.2715451205,30.05570652875,9.2324241308,-0.004350428375,433.797950275,13.605343275,2.876174827675,0.32692862215,19.7696186825,96.64969591825,97.262454205,17.66612993775,20.694946665,20.555165915,18.9439752325,-5.201699908175,-20.972224,-10.713641318075,-11.39539542,0.06627916285
3,23.75,16.8383661985,89.2234412439998,7.16498090725,-0.004108934975,460.42638144,13.64241631625,3.1220517959,0.360217254375,19.54478817,96.6616073335,97.2498331265,16.63532756475,20.5977765175,20.283379085,18.8161485675,-5.38327865,-20.13710350175,-10.563231768075,-11.1508066415,0.082799261675
4,0.25,18.56322141525,26.53333021625,7.0390144551,-0.0036309663,414.6409139675,13.6988576,3.0402928043,0.340256867675,19.2689769325,97.02413792,97.12602134575,19.54980456125,25.48405142,25.219634,22.34903616825,-4.769740900175,-21.195169,-11.82417350175,-13.13383542675,0.07819747235
4,0.75,8.281307610925,29.49602731575,8.46312522744999,-0.004815788725,410.759309835,13.5453421275,2.9107793238,0.366817585,18.8399205,97.25047183175,97.117815244,18.86477057625,25.14056833,24.92810267,22.10815381575,-4.790537416825,-20.96032925,-11.80314158,-13.09484561825,0.074853699825
4,1.25,8.9403776795,34.6422590915,7.09840244985,-0.003533335375,432.742899195,13.478520794,2.585754544475,0.279421074275,18.8148025675,97.3967511665,97.090416466,18.428101418,25.08387191825,24.68015166825,21.87859868425,-4.781563600175,-22.18249100175,-11.81591133,-12.66919341825,0.0708809155
4,1.75,13.3902119835,18.28886146875,4.6808844046,-0.005026665525,413.3808492525,13.51434601075,2.810647296575,0.39891507925,19.11694725,97.5124994165,97.076100559,19.4884011605,24.9097338335,24.3693471665,21.6083506825,-4.953519400175,-24.90545524825,-12.29704392,-13.2661598665,0.0635643775
4,2.25,25.94485777875,30.9131082725,7.4484936788,-0.002568149,422.486511775,13.53620284275,3.603346377575,0.458214171225,19.091932915,97.42044233175,97.07623081925,19.8292905105,24.7284408335,24.16166183175,21.43162343425,-5.253694249825,-24.04731983175,-12.8349548335,-14.63604284325,0.06955667715
4,2.75,4.336786654375,16.642374389,7.50399002375,-0.0042974725,440.035565515,13.343206437,3.505957924825,0.40678118895,18.915310085,97.0104016665,97.06214320825,19.3608720525,24.6716041665,23.85200208,21.17984456575,-5.246285392,-22.25490466825,-12.8578298335,-13.25693395175,0.072337605825
4,3.25,19.00656912075,24.705657887,9.15860136819999,-0.003885737525,433.94370704,13.184066565,3.48672411395,0.457819934575,18.64910845,97.08038367,97.06226728575,18.9880185925,24.43003425,23.6670288335,20.85364731575,-5.02164631665,-20.79987491825,-12.72954058175,-11.109433293075,0.070880899175
4,3.75,26.60028021575,23.96432058175,7.87493462435,-0.00294003515,419.88049758,13.015622583,2.3343288655,0.265458971575,18.1679313,96.80218608175,97.0631436045,18.126644734,24.24442175175,23.50833492,20.44379206575,-4.077179567,-21.17280733,-12.1293729165,-10.989137674825,0.068993849675
4,4.25,12.547088254075,43.67343574,7.23180597167499,-0.0028801513,440.0787643675,12.651535136,2.2415688813,0.3100185216,18.58289356925,96.80422183175,97.070307338,17.929198312,24.1988541665,23.3457840835,20.10514931575,-4.616020142,-20.95471733175,-11.6960570835,-10.65893873175,0.062306365
4,4.75,5.703807718775,25.551397084,7.52446976875,-0.0039751219,420.82652322,12.67228841,2.1524372727,0.2906064487,18.51964624825,97.56506000175,97.06614881575,17.315609038,24.01097916825,23.12663783175,19.81566943075,-4.477527758,-20.9865055835,-11.36847675175,-10.47455429325,1.451520135325
4,5.25,9.0548694717,34.623897954,5.5924986385,-0.0029594181,427.65827051,12.518277539,2.282761716775,0.28147738095,18.5397110835,97.67871158,97.0821232635,17.03444886975,23.8398349165,22.86711350175,19.44335668575,-4.428429108,-21.2601753335,-11.2276499165,-7.457940016825,31.19056899325
4,5.75,14.11503187325,38.05675260875,4.868256786375,-0.003197699,418.9049228925,12.762018234,2.117253600375,0.268181387,17.51954118075,97.7731869165,97.09333694775,15.44133300025,23.69375442,22.6826251665,19.22141841825,-4.519703749825,-21.33611366825,-11.38617733,0.535098192499999,94.48196491825
4,6.25,30.40313822925,59.952911385,5.16500910635,-0.0031120628,430.4753241125,17.7085611865,2.296486210925,0.241286737975,18.2063028175,97.79215067,97.0889657605,14.14096546825,23.68861558175,22.47843416825,19.0811044825,-4.52386011665,-20.43640249825,-11.27578399825,52.46987138,338.72397705
4,6.75,67.51181665625,94.213049749,1.20691975535,-0.004099413875,421.48331074,18.15632096125,2.682544628175,0.30977993745,19.55533918575,97.59942575,97.1237521875,21.429925638,23.6221134165,22.24847274825,19.2752083175,-4.241498366825,-18.76704133,-10.96894067325,154.6279283,584.9643575
4,7.25,112.1576017225,158.9554361825,-0.863044135250009,-0.006521691675,435.0280113725,19.73687208575,2.910178037725,0.42464863595,21.1744460175,95.32309349825,97.1373908205,25.67139006675,23.42875233175,21.9982731665,19.53858725,-3.85610651665,-15.09726092,-10.406927731925,247.6820842,827.6929841825
4,7.75,171.9975727925,120.8418834125,2.97888504624998,-0.005434061175,420.1901526575,18.74902251725,4.40816612855,0.547301109075,22.9608835175,93.30974733175,97.142367191,26.91693020975,23.31306542,21.88171883175,19.94705274825,-2.459785683175,-10.604489025,-8.593844292,340.1144492,1060.7555395
4,8.25,190.23203141,156.59336276,-2.228427674,-0.0071319325,415.19625803,17.77320980975,4.768744329575,0.5886626735,24.717116665,92.118119,97.1589299365,29.17575023575,23.2810416665,21.76287849825,20.39054267,-0.146643518325001,-1.353318681075,-5.855868900175,417.3390966825,1279.24481665
4,8.75,214.7856521,195.52653415,-2.856952759275,-0.0132736776,411.541008225,15.362001865,4.90764043284999,0.597993687249999,26.6090981685,86.3676095015,97.176973811,30.64837611625,23.185416667,21.71111267,20.8687510015,4.00132097314999,8.4687890333,-3.508168217,490.485038315,1487.785683
4,9.25,253.1661795975,204.3128180875,-4.32150744655,-0.0151258768,408.82310464,15.074525564,4.710919764775,0.64628168455,27.67458750175,83.87959474825,97.17608324725,31.5917776295,23.1347628335,21.69360141825,21.59694667,7.12878148299999,24.09338942,0.8915529699,549.57168,1638.942333175
4,9.75,271.649201775,220.126254775,-4.0732195735,-0.02058089465,427.388225435,15.42045380375,4.9444593923,0.6489049514,28.33575456425,84.87472558175,97.16423765675,31.43681677775,22.96959616825,21.7301538335,22.29788783,7.20116084165,53.20107725,5.230103249825,599.8881558,1788.13905
4,10.25,324.859953035,202.04838014,3.00343125327499,-0.0244224176,407.17171263,15.58544971525,4.37069871605,0.5679498638,28.94002683175,81.32420675,97.14023189825,32.71364579675,22.90201241825,21.7988416665,23.103897,7.395677075175,83.16481849825,11.040109655,632.9797708175,1897.72019165
4,10.75,341.6533355775,215.698790775,-3.400593311,-0.056417382075,405.54752496,16.221197636,4.632871285225,0.58328952485,28.90027075175,81.7572323329999,97.10909684975,33.942954856,22.8257065,21.85978683175,24.2238130835,9.17433331665,106.2126195175,17.30270866825,668.839206665,1981.233217
4,11.25,345.21304494,259.202360075,-4.446330847875,-0.0447321309999999,415.046649275,16.593185495,5.15501135115,0.598696771075,29.20750625175,81.46100458175,97.07916722225,35.3774066125,22.8072041665,22.0566843335,27.383954,12.50214692,119.5453966825,22.9148811665,680.647899985,2026.18391685
4,11.75,346.3415266,259.651768875,-3.14609219195,-0.084281116,407.02893163,16.380477791,4.8518025756,0.630610212,29.328331685,78.953705667,97.0507738045,36.449171195,22.8423858315,22.36168317,31.5962495,17.902392,131.727890015,32.62147483,664.426065,2037.733883
4,12.25,343.838621505,241.91548377,-3.3496998757,-0.0976284226000001,404.4830894625,16.451905691,5.0357259075,0.63140707405,29.5635178,79.20113041825,97.021812872,37.76132368,22.97434074825,22.78760633,35.31784791825,31.5472341665,139.5404816825,48.76703446225,667.805523305,2029.459050175
4,12.75,356.55688989,259.729636975,-4.36606271845,-0.0866191328000001,407.5763291275,17.016541723,4.833717402725,0.623942989425,29.473655165,78.18368766825,96.99670971,37.555027731,23.22775,23.52699416825,38.39926583,50.99553658,142.8003608,63.327558,632.37048667,2010.368149825
4,13.25,351.01137867,289.78689415,-4.509905201,-0.0774662729500001,405.33145137,16.794670181,5.183354123,0.6013151877,29.30661643075,79.0475393335,96.9711368375,37.194040468,23.46465716825,24.48918691825,40.84602433,68.4374271665,139.383994165,76.557863,597.9706917,1906.857383175
4,13.75,346.8309249575,242.59586341,-4.143330121175,-0.07600886005,405.8660700825,16.11789263275,4.78955851195,0.59237002375,29.3798459325,78.4833018335,96.95027457425,37.2194976145,23.71824392,25.40577024825,42.65388942,76.92621874825,133.0545667,85.48305683,546.0940200175,1796.247141825
4,14.25,321.08103126,204.026226375,-3.587137753075,-0.0743192973,408.4840671325,15.97542320725,5.043753442525,0.60583596915,29.2314594325,79.410508,96.93286174325,37.6075283095,24.08745774825,26.41340809925,43.83558217,79.52743717,125.4680383175,89.081549167,487.1039975,1667.146150175
4,14.75,307.69792787,175.17663531,-3.9923298961,-0.0842519316,405.183516895,15.379663851,5.29952199455,0.6547457058,29.0438417325,84.62895425175,96.9395178155,36.372225924,24.47228583,27.24329224825,44.04380449825,77.403787278,112.116725835,89.530793333,426.3492408175,1503.195042
4,15.25,280.1201368675,202.4627945725,-3.5660087314,-0.051614711475,406.6986192425,15.516857075,5.08790117375,0.5892617721,28.886739915,85.91309542,96.982866132,36.759289883,24.84283392,28.01855083175,42.84352133175,71.19585808,96.73385383,86.4911399985,341.2654775175,1315.40314165
4,15.75,248.148508685,153.07173655,-1.638109272,-0.082954627,404.75765077,15.952734226,4.839076145325,0.633424867625,28.5239960175,86.47022517,97.004133464,36.750130096,25.21070366825,28.649,41.362559,66.57085233,84.86477900175,80.97294725,252.5957925175,1115.52675835
4,16.25,211.2466293875,154.80594237,-2.293482837925,-0.034329376075,404.8697406,15.779598136,4.595157330675,0.530714703125,28.003876165,84.83190467,96.996740132,35.438645521,25.55848916825,29.11954166825,39.33614524825,58.86438441825,72.48723208,73.4410859165,174.6537085175,876.354855
4,16.75,155.0429946125,138.51043687,-0.6669242735,-0.02494365095,405.6301332975,15.436152567,4.2065739071,0.514430636325,27.5288842,84.12964508175,97.00230505775,34.114628467,25.83480449825,29.33318750175,37.3905074165,50.24474516825,57.24582308175,62.73053724825,145.1723502675,658.6460108175
4,17.25,107.2739416225,71.062344235,0.82084005515,-0.033449733325,405.826468995,15.78535215,3.502016284,0.45920308935,26.5782662325,86.11423083,96.9851163245,31.066301483,26.0786701665,29.51681250175,35.76620175175,41.32547658175,42.6030530835,46.388867,55.3379485989999,429.7524608
4,17.75,60.0044213265,67.746487727,0.720806446049999,-0.022471861975,407.028932075,16.66950771275,3.182204204425,0.369537237925,25.384706085,89.26384500175,96.97273651025,26.279541775,26.30306250175,29.49291667,34.27643750175,30.10136508175,28.25921208175,30.63483092,-9.84812552232503,206.9810366825
4,18.25,21.6700604745,69.0347099969999,4.8463544075,-0.0042737225,414.8066238925,14.492791375,3.092790967375,0.3030432621,23.5426907,92.09223674825,96.9746152545,24.13803362425,26.45849999825,29.36877083,32.75648075,17.8520036665,13.045554545,18.52661033175,-29.52402274825,44.47712835
4,18.75,11.483280510475,21.08195994725,5.17777664995,-0.00585217785,409.1926819775,13.954123552,2.80676163025,0.303323090075,22.31996445,93.69743983,96.97988708075,24.95434423675,26.46639899825,29.2186666665,31.27278658175,8.036516958,-2.78358336915,8.87359333335,-37.24098424825,1.819300437
4,19.25,8.5921470533,13.72734961,5.1507643303,-0.002190085575,407.10906924,13.9047554215,2.532215651775,0.2753037554,21.6949326825,94.1612088335,97.0196164455,23.071800537,26.52846308175,28.97695833,29.85127083175,2.31913214285,-14.0922565,0.917409692425,-27.78453983175,0.09269814035
4,19.75,5.849333726175,25.9313236175,8.41189981415,-0.0027122069,407.48560168,13.8580408545,2.5447252668,0.2945774796,21.34280505,93.94256142,97.0495645275,23.31930312275,26.5553473335,28.68431249825,28.59560417,-1.48188920475,-20.99636675175,-4.813926533,-27.707526,0.0888577635
4,20.25,12.84720815875,24.1903206325,5.9311843198,-0.002941309275,410.2806546875,13.63989577875,2.417989107325,0.258292445125,20.98781195,94.00971833175,97.069751277,22.757371754,26.53157108175,28.3454855835,27.51534033175,-3.391680666825,-23.9210035835,-8.063510550175,-22.9453904165,0.084884937175
4,20.75,7.323710163525,40.0267390909999,5.6013966039,-0.004942730525,408.86203663,13.740489424,2.46044203195,0.260319094975,20.5555135175,94.14147899825,97.08836079875,21.999909114,26.47930283,28.023883,26.53254533,-4.672242033,-24.40518717,-10.9367725335,-25.66632625,0.0789568015
4,21.25,6.92136801995,27.16451357375,7.2316790282,-0.0025849188,411.953369705,13.40254592375,2.332516256775,0.29211847635,20.9388073175,94.23725308,97.098895027,20.8093399325,26.462125,27.66116433,25.70940383175,-4.7818418,-24.38116874825,-12.16149808175,-20.7690959165,0.073604724825
4,21.75,22.2155323545,16.105186135825,7.7407000767,-0.004903344125,410.428831815,13.40782519875,2.459151029325,0.2618234574,20.97921055,94.41965158175,97.10068856275,18.56310211875,26.38537499825,27.26978524825,24.9979745835,-4.667682041825,-24.07928017,-12.51678641825,-19.4464803335,0.068252663825
4,22.25,8.28411805765,25.413945425,8.64978637937498,-0.003616581925,413.70627696,13.454602684,2.667548338975,0.272982413175,20.7125839825,95.41469800175,97.1070990015,20.726124078,26.21072917,26.9108974165,24.34695091825,-4.680887675175,-23.55747642,-12.48814524825,-17.62874525,0.074180274675
4,22.75,16.45718381725,24.61383011,6.25823558205,-0.003340321725,411.504846215,13.728814406,2.6890240324,0.312675551675,20.489850415,95.92738975175,97.1161826495,20.917315748,26.05101167,26.55992000175,23.72051075175,-4.901485375,-23.13919342,-12.379613,-18.53122741825,0.078958926175
4,23.25,10.0227253471,19.99488484275,6.947490459025,-0.0045401855,410.75440322,13.7316828385,2.5098765691,0.39737778655,20.7218785,96.38926949825,97.13471062825,21.820207981,25.9130865835,26.21402433,23.3543119165,-4.910037475,-22.26055108,-12.12772274825,-16.48818117,0.06558389585
4,23.75,5.994292399475,17.01268902375,7.19362498415,-0.0042948859,416.5316708275,13.6879416865,2.64936429245,0.3413569074,18.9296690675,96.72739941825,97.1307372535,19.4671968485,25.78516508,25.8638948335,22.815425,-4.796870591825,-21.55066683175,-11.92470750175,-14.08056667,0.068927666
5,0.25,15.722511986,24.851013164,8.41262646984999,-0.003572887625,419.2893623125,14.8059562435,2.31034162365,0.294512857575,19.90075100175,97.23792274825,96.9416271335,15.634844067,28.75404166825,28.66427083175,26.1221029825,-5.72089513335,-23.04053175,-13.1271605,-13.44150242,0.07670768015
5,0.75,15.73097956475,25.17864849375,5.1854303104,-0.0022972784,419.4009965,14.8308510185,2.3174800069,0.282412939925,19.94955142,97.348363,96.91805829425,15.5423876125,28.57764583175,28.3051810835,25.70239541825,-5.894566649825,-23.6886965835,-13.0936133335,-14.27575783,0.066206783
5,1.25,13.493984537,33.14874884475,5.670393846375,-0.004872017075,422.76835838,14.50461096875,2.187425382025,0.26505392365,19.25874200175,97.44881008,96.903321063,15.18207939,28.3847708335,27.9937231665,25.3634258335,-5.945014649825,-23.89459508,-13.0830416665,-14.66607683,0.069755320825
5,1.75,10.308541716,23.755214828,9.79449461245,-0.00220524045,487.1974378,14.879682112,2.218863188,0.2631848922,19.98197741825,97.62564866825,96.880992619,16.603135888,28.1522788335,27.68002375175,25.071962585,-6.033521991825,-23.5012625,-13.06072667,-14.59843113175,0.068927647825
5,2.25,11.98233460125,25.59265675375,4.69677080625,-0.00329326085,432.832629085,14.8449430085,2.414381899975,0.256621834075,19.43454158175,97.68745049825,96.870939076,16.514032885,28.00125799825,27.38258333,24.8043032,-6.111126708,-24.00584475175,-13.06241583,-12.42168074825,0.061677353825
5,2.75,11.003924695,30.8403796075,5.65253147459999,-0.00364146815,422.464698315,15.03005577,2.338584366525,0.240558196175,19.562293,97.71964617,96.8633032455,14.855118,27.8787505835,27.1165,24.5530352675,-6.148813517,-23.80987700175,-13.08786649825,-12.84487733175,0.06363061265
5,3.25,21.9163675705,32.439976264,5.807521335,-0.003617280975,443.28021634,14.97915513,2.3140971935,0.300581117425,19.7663790835,97.706398,96.8662494305,15.4502725,27.72170949825,26.83202241825,24.317697585,-6.15085149165,-23.49138158,-13.30611516825,-12.707235,0.07025189165
5,3.75,16.4354199635,63.3486601815,6.573675303625,-0.00309277195,431.07442435,15.05502278875,2.2972680881,0.257120887725,18.99282758175,97.68245850175,96.871329427,16.034083045,27.5726666665,26.65364583175,24.06142306425,-5.939637575,-24.2658940835,-13.55510400175,-12.74894275175,0.0682526605
5,4.25,10.796749583,43.458087075,5.0467863888,-0.003435776425,467.750346295,14.92240020825,2.5799995518,0.311838442975,19.45357108175,97.70204799825,96.86882991075,16.32577534775,27.3452291665,26.351455,23.83328243575,-5.836436525,-23.4961710835,-13.541698,-12.00688858175,0.23654567815
5,4.75,11.09208617275,44.5242322165,5.870220196875,-0.00368996805,439.9616571425,14.8055546435,2.31895483095,0.319115467125,19.63723599825,97.74013825,96.87453214075,16.359047674,27.1864166665,26.17973249825,23.63787416825,-5.804304725,-22.31610567,-13.5215088335,-11.70940275175,13.2811883165
5,5.25,21.702035105,44.4915968245,5.1677366054,-0.0028484527,418.005930145,14.84782358625,2.387246209075,0.39178735225,19.54865125,97.7858136665,96.8961371815,15.6000807475,27.01387499825,25.89414583175,23.56905333175,-5.508246791825,-22.66163633175,-13.46530700175,-0.79070043075,69.47127049825
5,5.75,24.48979423875,73.177911026,5.71478108475,-0.00333030645,467.7445571,15.03881017225,2.203115609525,0.370122020875,19.38847099825,97.80261325,96.91776939725,14.71088735575,26.85283858,25.66460416825,23.41289133175,-5.55207103335,-21.9374930835,-13.24774358,24.2769408415,158.219456415
5,6.25,50.52512322725,63.217892302,4.75057362325,-0.004849659775,515.9304514375,16.2248282075,2.273240098325,0.29907352425,19.89161983,97.82049449825,96.94916183775,18.911686514,26.70806249825,25.5437521665,23.26479541825,-5.07150158335,-19.6531153335,-12.41590533,108.7983782,453.9375033
5,6.75,124.2004120475,124.087269535,-0.326340097625,-0.0049319331,486.435816365,18.8334489925,2.5040407038,0.311421007,21.65132233175,97.75997241825,96.96067133125,24.2646713825,26.68085417,25.4126474165,23.36833125,-4.070052608175,-16.3931960835,-11.25001566825,222.06331355,670.3381775
5,7.25,162.916362895,119.784781725,-1.06198740165,-0.0112481205,419.977561075,19.00024965375,3.1107505825,0.385860734,23.5214801685,97.6127080015,96.968297191,28.8403245425,26.417207833,25.1059583315,23.591254315,-3.02733395,-8.5252369,-9.3828427833,324.403727985,954.84859167
5,7.75,214.747938885,150.5813012,2.48548039939999,-0.01225187895,431.73289062,19.412118524,3.500987570825,0.45266544135,26.09582158175,97.30150025,96.9642031605,33.3898280865,26.327732,25.1190625,23.84382144575,-1.0171830183,-0.405357631425001,-6.57408571665,383.5471742,1111.321525175
5,8.25,212.38465463,165.42289299,-0.376424711799999,-0.01394147425,437.54104974,18.93630661875,3.597920631,0.45954890615,27.4652293335,95.18423241825,96.96227982525,37.50314302,26.20986858175,25.0983584165,24.50081856425,0.157033766149997,7.179611850175,-3.68914230835,466.6556258,1297.647000175
5,8.75,302.0693975625,170.95244504,-1.22880246017501,-0.0080005277,544.7847840725,18.306747419,4.15236582595,0.486149578775,29.30605891825,94.25511258175,96.96597258075,38.7614428075,26.20666667,25.03426441825,24.94785416825,1.298506003625,17.57267458175,-0.317468357625,524.7915133175,1499.380200175
5,9.25,300.337435955,172.15115059,-2.649599158125,-0.02919757075,408.71854084,17.630594264,4.44445900875,0.5448064533,30.18586483,94.07954349825,96.9571332715,38.677887328,26.17689583175,25.01526441825,25.3588287325,4.284605724825,32.16564775,1.557622806325,567.955303315,1650.669766825
5,9.75,333.2039045625,255.81791276,-2.6935803086,-0.03569383555,439.065331585,18.17609798325,4.372461996375,0.556302580375,29.26006358,93.99450358175,96.95556986,35.91312267925,26.0614166665,24.98878208,26.05276806425,7.106376274825,57.4740813335,5.191886958,619.076100015,1795.01915
5,10.25,354.5629513875,190.505212,-2.764902596175,-0.041269310075,405.98162324,18.34016106175,4.531618879,0.5896652449,29.4847375835,94.70407850175,96.95599487325,36.0078037915,26.0189375,24.984617,28.83047642,9.24949080835,84.09391075175,7.774301492,646.9306591825,1890.16406665
5,10.75,392.6473883325,193.87686972,-4.0635149872,-0.045668169025,405.267090745,18.22915778625,4.860277371875,0.60926288305,29.5006043335,93.72028842,96.96087647225,36.0785624715,25.98306250175,25.16099633175,32.37127708,10.9024310085,103.32201875,12.18748058175,676.5240542,1973.143174825
5,11.25,434.242555765,216.02068712,-2.36205794215,-0.08256488095,473.43487101,18.11537422875,4.53693260695,0.614600541225,29.30987292,92.46165233,96.97501744325,37.0447034625,26.05324999825,25.54470992,35.55828991825,14.37157216825,118.003255,15.64906108175,691.7029308,2034.31218315
5,11.75,400.64218742,199.25116838,-3.1361868059,-0.0590844632,406.6147490675,18.252361169,4.916298168875,0.6779223874,29.14194300175,89.1967690835,96.98245330025,34.1910823695,26.1670416665,26.1809310835,38.45515925,20.64010792,127.78453833,19.96033225175,679.056028335,2039.15906665
5,12.25,434.9122740875,220.6148114125,-1.7653056956,-0.0990247386,409.4016116475,18.10238477525,4.92668512135,0.6871219159,29.14762383,89.36388108175,96.986426415,33.0088298295,26.28943633175,26.9402095,40.9852768335,25.749699,134.426219165,29.7424450835,666.3929949825,2027.366792
5,12.75,429.0187791975,188.961401,-3.07844772105,-0.1143995216,409.1479427,18.155447052,4.7112563849,0.63825544035,29.24067817,91.7064170835,96.98712711725,32.8434864065,26.62700000175,27.92080549825,42.65097799825,47.88619816825,135.8764517,48.49791083175,642.7361433,1982.232525
5,13.25,410.270901655,184.2004158275,-3.5076302266,-0.0881856699750001,407.10611777,18.05055709,4.626597333375,0.6067290661,28.54323567,93.88104433,96.975955287,31.49838492,26.86992758,28.96127083,44.40691275,67.0384648335,135.7382825,66.40021975,609.374234985,1905.85745015
5,13.75,416.64857034,189.22581592,-3.82587728415,-0.0667313271,410.697475175,18.3997924535,4.59280861645,0.650963903475,28.4220710835,92.61644483175,96.96106897975,31.1275000605,27.2724791665,29.94714583,45.3160000175,75.9391847495,131.7335274825,80.9966650015,571.5893658175,1803.668783
5,14.25,442.46292243,186.49886896,-3.407967510375,-0.0878677236,415.512878235,18.420845699,4.651718366575,0.66895161595,28.0077084165,91.23764074825,96.945332524,29.7700048425,27.7722533335,30.94778950175,46.05620016825,78.36071183,127.395471665,91.02017717,525.9248424825,1707.06464165
5,14.75,383.726299565,165.10016472,-2.6211530341,-0.0783961751,470.27668142,17.932212575,4.367082041175,0.606660487375,27.6128005,92.36871267,96.93633998775,29.221646218,28.1604215,31.8661655,46.6913436665,76.29170033,117.9433283,95.08198567,470.6200466825,1555.803529325
5,15.25,360.600795465,158.9547935,-1.6144153593,-0.0768902967,463.186629065,17.75935491225,4.25574119885,0.60221101645,28.3572331665,93.1009765835,96.9097354815,30.86017873075,28.62524999825,32.61176442,45.53307693075,73.238796833,107.470074585,94.77198983,390.148126665,1349.537816825
5,15.75,330.9362558125,132.58468594,-1.63762113735,-0.049376915825,436.8762049,18.222413573,4.5362215393,0.583686753475,28.71396900175,92.59457567,96.89662037475,31.90370125875,29.04714583175,33.20375058175,43.76712616825,67.31554366825,92.61823416825,90.5005434985,297.560144165,1171.280842675
5,16.25,262.2302370625,106.91609042,0.221270678049997,-0.05680141195,470.077319895,17.943963401,4.40967258545,0.5522571858,27.89624917,92.46682924825,96.881230425,30.8387347,29.4208333335,33.4729755,41.81368342,59.7439436685,78.79391617,83.760684,209.122890925,951.3366575
5,16.75,221.200689185,112.91935888,0.604740699699996,-0.051789163675,424.26030405,18.19482781475,4.183616248625,0.5008213492,27.52262391825,90.97745683175,96.87341583425,31.713539812,29.7634791665,33.70308192,40.05740967,52.34308892,63.23861183,74.05806533175,148.9627114825,741.8340658
5,17.25,178.6317157825,83.1828129454999,0.786871848949999,-0.052175828125,404.929302585,18.233910662,4.0779235405,0.500289697675,27.030255,91.60563458175,96.8733283135,29.09466354,29.89781249825,33.63163858,38.54250858175,43.21349666825,46.57504,60.76551117,80.700899395,522.9967417
5,17.75,106.050195135,64.49232453325,2.87151077404999,-0.055397002875,404.551997695,17.760055084,4.1626703897,0.465642073775,26.09440525,91.51674067,96.87762979575,27.08299209725,30.03304166825,33.44845250175,37.17679075,33.09121800175,31.6402145,44.3973346665,5.49313864824999,314.154325
5,18.25,60.709917854,41.0069889849999,2.185902500575,-0.026352674525,404.19545957,16.5533993885,3.894054769325,0.4379591154,24.67636758,92.4154289165,96.895645988,20.63708836675,30.2039166665,33.281008,35.90149999825,22.22552583175,15.7730408335,31.17330908,-12.545819545,126.9789920675
5,18.75,27.84114215375,72.89076394325,3.7169732961,-0.00913935355,404.24294099,15.82065430575,3.081178786075,0.3887520791,22.88288941825,93.61326058,96.9147685685,18.09918905375,30.25220833175,32.96812874825,34.77837717,9.987358515075,-1.438370429325,20.25843367,-16.63450275175,15.88717319825
5,19.25,25.83550806,79.3692247844999,10.119376182075,-0.00284545355,478.958706595,15.67930667475,2.6432751915,0.34727581525,22.06080975,94.2984825835,96.940070764,17.53289915225,30.24602083175,32.6414155,33.56185083175,1.80954379255,-14.5894290835,9.40048762325,-17.57626983,0.2945813585
5,19.75,22.8476441785,16.68579924375,4.7445623598,-0.004108740225,610.225020085,15.740203117,2.678912768075,0.325023896425,21.25815592,95.24895824825,96.95958163725,16.960379497,30.19387500175,32.31000000175,32.37090500175,-1.43813296925,-20.93596599825,1.109886007175,-16.834729,0.08558016285
5,20.25,20.98932010175,40.3446986355,6.872628667125,-0.002239496325,476.1391471025,15.610026746,2.66730076535,0.2728780212,20.84283758175,95.53429691825,96.9735108235,16.3382345235,30.07264583,31.895587,31.31787499825,-3.35687773335,-22.60510267,-4.72631645,-15.09019483,0.074853693
5,20.75,19.92607623825,18.696968145,4.438143790875,-0.0036584347,493.3794183275,15.441223928,2.54379489745,0.277422207325,20.46073649825,96.0828921665,96.99075952775,15.8267353975,29.97237500175,31.45693749825,30.31085417,-4.20268419165,-22.78180225,-8.12527956665,-14.60752808,0.07617793515
5,21.25,18.45225119175,47.6468858935,4.2378627685,-0.002427839175,480.3577819125,15.3205219895,2.438294787725,0.30072713565,20.12301191825,96.25142274825,96.9904064365,16.591393938,29.8495,31.05239217,29.5716875,-4.744736725,-22.7262076665,-9.333334075,-15.6110755835,0.071576178825
5,21.75,17.255946227,52.441823032,7.5305364095,-0.00199952365,458.99829148,15.228859619,2.484038708825,0.320324358125,19.92416767,96.41714692,97.0017216085,16.48173506775,29.75587499825,30.59693342,28.7554375,-5.055804841825,-23.61282808,-10.75705658,-15.74932974825,0.07101336
5,22.25,14.73711671525,49.44275863,5.8140457486,-0.003641083525,411.15023162,15.0526707065,2.521201726875,0.30946575915,19.24100083,96.51728141825,96.98375611775,16.438033446,29.54118749825,30.17481249825,28.03460399825,-5.23456275835,-23.64964991825,-11.7083424165,-15.07129583175,0.0702518715
5,22.75,16.8110142695,18.452059608,5.7961579666,-0.00372778685,497.1789392125,15.0268381405,2.2932815192,0.29623823005,19.31388616825,96.58655583,96.967505257,15.575380834,29.34893749825,29.81187499825,27.45545833,-5.354221117,-23.399797,-12.02763725,-14.869848,0.069556641675
5,23.25,14.20289709475,28.99662659625,7.14093186425,-0.003216124425,520.69366329,15.04152475075,2.117199887875,0.29422940515,20.12140249825,96.91893125,96.953905006,17.21210097075,29.15339583,29.44862500175,26.86433333175,-5.454009975175,-22.66506525175,-12.28832600175,-13.67892756825,0.07624420815
5,23.75,14.8053001135,17.4312723225,5.685824674875,-0.001806499,419.3987748,14.878323665,2.2608855446,0.248908497775,20.38747367,97.07714058,96.95346560975,16.0187040195,29.0041875,29.04537499825,26.49821256575,-5.541961925175,-21.93268124825,-12.57486533,-14.3729123335,0.06690816
6,0.25,16.832964531,16.24931707,4.2733321536,-0.0024150051,410.2254158125,17.269263516,1.64580254785,0.22566980445,27.26641616725,97.4224300855,96.658455555,26.77036208675,33.43275058275,34.48914516725,31.36668750275,-5.033908549725,-23.53167825,-10.61485125,-16.74211108275,0.066974333
6,0.75,12.48475303425,33.1870865175,5.82164056645,-0.002131661325,435.12624276,17.1161680225,1.83838024245,0.24970227105,27.05272258275,97.497172,96.637669856,25.30369958275,33.39212499725,34.10619825275,30.88798191725,-5.08258931645,-23.43837442,-10.75516874725,-16.8495845,0.0682324365
6,1.25,15.318056384,57.9154933225,8.1675209812,-0.002221290525,416.72524046,17.141963954,1.778638333675,0.254134131275,26.86190891725,97.55048625,96.628704002,24.331694254,33.18879166725,33.66791874725,30.35318749725,-5.07330844145,-23.20922183275,-10.88633892,-16.23266774725,0.076244188275
6,1.75,20.26804149375,59.06860672,4.9684400392,-0.00276102142500001,409.8307357,16.90548443925,1.6285301368,0.242433535925,27.01113892,97.57767349725,96.6415250205,24.686473503,33.09104167,33.35076466725,29.87770833275,-5.065925925275,-23.02328533275,-10.99772191725,-15.97200699725,0.067537147
6,2.25,14.32361842475,26.752528618,3.7613022668,-0.004080406425,409.91517322,16.93771105075,1.818541119875,0.273057842425,26.24404933,97.65429933275,96.653389118,23.5378485335,32.78305433275,33.04727633,29.46483333275,-5.066598516725,-22.80435874725,-11.08259967,-14.81382667,0.070880936725
6,2.75,20.0982693244999,64.0049462499999,4.85128284955,-0.005401182775,409.35318372,17.25928189725,1.795021106325,0.226063519275,25.6924433355,97.8049430855,96.64541634325,24.10523029675,32.6939166645,32.72979775,28.99887499725,-4.945459675,-22.51416774725,-11.1213235,-14.48926450275,0.068000693275
6,3.25,13.5346075145,26.95593585475,3.7012258486,-0.00374188655000001,409.12117704,17.43529595725,1.942311602375,0.22133509045,26.49658150275,97.92006883275,96.6339296905,24.7644020675,32.68047917,32.47058333,28.5915,-4.85648583355,-22.1317020855,-11.1505053355,-14.53159799725,0.06230637755
6,3.75,13.51056568425,31.8840288905,3.85078652674999,-0.005111166925,430.71851734,17.447843562,1.9906954712,0.282574483975,26.8113019145,98.05015742,96.6382440675,24.696530954,32.46322917,32.1698333355,28.2206449145,-4.793153674725,-21.71557891725,-11.18545283275,-14.13939974725,0.062471891275
6,4.25,29.33004754325,73.9385077914999,5.47124959739999,-0.00350907112500001,429.7202735,17.31117994025,1.744665095375,0.308892003,26.90617667,98.07013867,96.6492403565,25.551606362,32.17560417,31.92310633,27.86068475,-4.75702320855,-21.4567863355,-11.24312641725,-14.13937633,0.509210699775
6,4.75,29.3307156919998,52.215250849,6.03891467275,-0.0042323873,434.17790828,17.296885641,1.4555899408,0.2360760404,26.60482292,98.1344908355,96.66150908025,26.3707804315,32.1067233355,31.62089525,27.58219425,-4.740795499725,-21.39281516725,-11.32812292,-13.07238041725,17.8983194395
6,5.25,25.2476447442499,53.3328734275,7.41137861569999,-0.00582694105,408.899521625,17.582061389,1.747096962725,0.224972701025,26.68704475,98.10254983,96.67775862275,26.2858305085,31.85364092,31.41270833,27.22627817,-4.708049317,-21.2557505855,-11.40118175,-1.70673562605001,68.52765258275
6,5.75,42.39464871075,45.7711322675,1.071109046775,-0.00631108010000001,447.170068025,17.924517841,1.561898618325,0.22926931065,26.67768208275,98.12625066725,96.68932069025,26.77726506475,31.6138609145,31.15645833,26.99489033,-4.56599620855,-20.43380917,-11.2516100855,26.10194346725,143.0909310775
6,6.25,59.31573106025,80.25739538,3.10513133125,-0.00772199585000001,410.77521335,19.532954836,1.730569387175,0.27309970975,28.74975883275,98.12829416725,96.724011102,35.408667194,31.45143750275,30.90903283275,26.84081158275,-4.164927283,-18.28798549725,-10.62506405,123.53982325,494.397385855
6,6.75,99.8370914847499,110.0434115525,0.989433944949997,-0.0048138794,411.790157075,21.9227128325,1.827936186825,0.2900262472,27.1099545275,98.10038141725,96.7385777025,40.2812708475,31.4039375,30.70145833275,27.02081892,-3.368893566725,-13.7696475,-9.299459425275,214.4495483,707.5063742
6,7.25,175.97864014,97.4184800800001,-0.93973587075,-0.0031132618,500.30301702,22.461894963,2.6789508554,0.3700410382,28.818396694,97.988199336,96.747158606,44.41739923925,31.320666666,30.450333336,27.518999336,-2.3341566664,-8.055289267,-7.2992788002,301.38065998,920.5174467
6,7.75,207.71062708,97.0000036640001,-0.318902242799998,-0.00882526095000001,414.97589974,22.989439882,3.49352660145,0.4308680437,30.576321334,97.913237334,96.74235870675,48.551376064,31.153333334,30.304666664,28.111002666,-0.817399083599999,-2.14857170399999,-5.2978152002,379.10550002,1125.3566666
6,8.25,225.46314574,100.105856928,1.22971493980002,-0.01118067135,410.63853354,21.839011042,3.532475263075,0.465449648475,32.86989475275,97.90627433,96.73074994575,44.42940437425,31.0060860855,30.1243125,28.7951666645,0.699324344999999,5.106392292975,-4.16515886645,447.7816017,1327.937466725
6,8.75,271.3536418175,102.17272954375,-0.512498043999997,-0.011645629075,409.81257256,22.178144492,3.82445932905,0.459517794625,34.42649161025,97.82063174725,96.7210280795,51.902136552,30.7986305855,30.10645833275,29.4591666645,1.969770724725,17.952890705,-2.52967827025001,506.577876645,1503.53233355
6,9.25,331.4892081,139.392693205,-1.1364630108,-0.034112861,409.47188258,21.63499281975,4.0789221362,0.5400440368,36.137001306,97.42111133,96.700247502,54.2050694095,30.71844467,30.082,30.246277998,6.66469806660001,37.623516664,0.931387421400005,555.74273334,1641.3590664
6,9.75,346.99650402,120.671143635,-0.324125647399997,-0.0671936113999998,408.48932982,21.23197111975,4.5017526144,0.542570959,36.68142536,95.20818733,96.678616688,53.67221469125,30.708499998,30.071333336,31.352885998,9.0702129324,61.257276,5.129590533,616.3990467,1785.3848664
6,10.25,364.84026772,134.41900784,-0.609329314799995,-0.0949782929999999,408.13293942,21.314819878,4.3881251728,0.54125862,35.312891974,87.889459334,96.67133093,55.022388164,30.703333334,30.097666666,34.326001998,11.335155066,82.985673336,8.260059,633.63386002,1881.305467
6,10.75,410.6286314,124.56561182,-0.616315290399999,-0.1165413076,406.17096242,21.077267944,4.612500669,0.5833884164,34.473610664,85.814272002,96.677376994,49.49296886,30.68816667,30.160333334,38.438280002,14.102573998,98.936661324,11.927854266,673.41967334,1972.2703734
6,11.25,432.92495778,137.1736843,-0.879811743199999,-0.1587611948,406.01193064,21.262028066,4.7264705778,0.6018028554,34.704765998,86.54444333,96.66670491,50.116378058,30.69266667,30.44666667,42.305612,18.907025998,109.3075333,18.279454,671.97080666,1997.1980798
6,11.75,446.67794862,141.0021630325,-0.927797277599999,-0.1547918548,406.118036,21.275040024,4.8706432548,0.6081465172,35.12704667,85.857618666,96.667445642,52.764574862,30.70583333,30.913111998,45.435108002,22.41189067,115.2943,22.26844867,685.60066664,2014.840467
6,12.25,442.59485276,127.6739229,-1.537502532,-0.14190795385,407.71884608,20.835405884,4.8539231368,0.598749604,35.499053998,83.899846,96.645827146,54.567775634,30.708888664,31.535000666,48.511939998,26.425625334,117.93592002,25.902079998,653.88630002,2005.0920664
6,12.75,463.49320662,130.50432302,-2.2564227794,-0.1532027754,407.03340062,20.550432026,4.7053092384,0.5995305562,35.44910267,81.872826666,96.644218782,56.090357382,30.82911133,32.306333334,51.148443336,38.589446,119.15928002,36.340416666,625.7436067,1962.1445336
6,13.25,452.37521074,140.8270636,-1.5874775234,-0.143396369,405.07688842,20.51498508,4.3952338718,0.5823699186,35.43838533,79.57002867,96.62447907,56.296552832,31.161278666,33.049279334,53.291611336,58.414680664,122.91514664,49.899869998,593.3954867,1927.249333
6,13.75,428.78315324,106.57697726,-0.912339745199999,-0.1324560198,403.57374778,20.398117938,4.7314399318,0.598113094,34.912075334,78.787052664,96.612848108,55.5886276920001,31.396500002,33.85577733,54.906,68.749547334,123.36287336,61.329584666,551.47083998,1835.172267
6,14.25,417.9389299425,109.13861292,-2.0689034006,-0.1494672984,403.18131102,20.46504003,4.5786680624,0.568954769,34.97081174925,74.55385924925,96.582891684,52.3218884660001,31.6111671685,34.69153349925,54.6733125,71.75949083,119.199904185,69.50446374925,507.1498908,1725.06775815
6,14.75,424.40308344,124.60601766,-1.0298981602,-0.1352033952,403.30303472,20.925685928,4.5158128014,0.5704055294,35.102304664,74.448797336,96.560273958,53.246988438,31.978335336,35.41333467,54.145,71.9838951685,111.44159334,75.7747526685,447.65600664,1609.1170666
6,15.25,355.022923,108.34715698,-1.25573953019999,-0.1206773994,403.4593864,20.58934189,4.426506922,0.5810367488,33.891089998,76.542995334,96.539981968,47.036010942,32.267333334,36.20289133,53.446945336,71.23327733075,102.4777653,77.25519625075,378.44121336,1407.484667
6,15.75,360.67824626,93.50275288,-0.0704371155999891,-0.1063899154,402.94386148,20.270674634,4.2895476846,0.5676503842,32.95459733,76.80795733,96.525610496,46.478008448,32.62483267,36.851333998,52.476666002,66.83270625075,93.608112664,77.39390174925,299.5251467,1228.880733
6,16.25,301.62912644,92.563276144,-0.616080794999999,-0.088369181,403.71690448,20.870392074,4.5869611538,0.5518468754,32.67187467,77.563106664,96.513881228,49.528525128,32.825052664,37.533107336,50.960217998,59.263992,82.512721336,75.20192467,219.5951867,1029.2306864
6,16.75,256.40362606,64.343154504,-1.0283194486,-0.0959355741999999,403.79342406,20.87633048,4.5106832804,0.5519198084,32.661574694,78.713017998,96.50622912,49.492776182,33.181111998,37.953774002,49.212281334,52.375970002,69.996454666,71.038662,138.3463147,818.53076002
6,17.25,215.43279404,61.4729935100001,-0.681278403599998,-0.0763875943999999,404.00847026,21.4065694005,4.0786287508,0.5013478758,32.586822,81.484284664,96.512841732,48.3445528475,33.438221998,38.228056666,47.39883667,44.321714002,58.151138002,65.917180002,71.693932466,602.3137533
6,17.75,165.60425888,69.0461628455,0.278103433600003,-0.0547085177999999,403.76196676,21.449388774,3.943137032,0.4747572632,32.458323336,84.23811467,96.52492093,44.557221278,33.523997998,38.283612,45.648608664,34.662988,45.431389998,58.953509334,16.790698184,393.7421667
6,18.25,85.604459496,33.8453388680001,0.820732225400001,-0.019839571,403.1073522,20.5260545705,3.5628477252,0.4176762466,30.57829369175,88.54706124925,96.535640386,35.372665442,33.86275433075,38.28749974925,44.0367558315,24.12755616925,31.14349466925,50.17990341925,-23.2532196685,196.8760816925
6,18.75,33.676202468,64.8672660120003,3.2763266552,-0.0114979642,402.32598006,18.660704458,3.2595411722,0.3817823408,29.031420666,91.257680664,96.547522644,28.962183174,33.897776666,38.2325,42.452388002,15.37693513,15.927627066,40.039256,-25.33566733,45.208353334
6,19.25,27.801406884,22.065958454,5.068463302,-0.0065205282,402.54318098,17.639787286,2.7953602656,0.3308296524,27.446691334,93.26572133,96.546864732,28.316502338,34.08243933,38.058278,40.975281334,9.193227067,2.0223692196,27.868074666,-24.408658664,2.2997078584
6,19.75,23.373470664,31.2516160620001,5.7767794028,-0.0038766076,403.66915684,17.197361514,2.288686825,0.2818520478,26.163817334,95.306525336,96.568124236,27.309492594,34.187117336,37.833108,39.381891998,4.404998067,-9.0292268002,15.984147998,-22.45274867,0.108854008
6,20.25,26.978462764,81.8954901280007,6.31806939275,-0.0037145632,405.51533248,17.007821242,2.300234538,0.259073746,25.162809974,95.885687334,96.58494204,24.843418666,34.219340664,37.493776002,38.028993998,0.858856591000003,-17.039280664,7.8158286666,-20.945459336,0.095611475
6,20.75,22.921313688,15.225150362,4.3905280706,-0.0033071982,405.50981824,16.965995414,1.9336663904,0.2269809324,24.651971336,96.477295336,96.61697466,23.734123488,34.20511467,37.138889998,36.80350267,-1.6750796834,-22.46885867,2.152379094,-21.049656666,0.0813094496
6,21.25,22.63694544,22.371326548,5.0981238738,-0.00315448399999999,408.01568442,17.025250522,1.6556299456,0.2216726096,25.183826,96.656672002,96.645951648,23.390978668,34.189344,36.76522333,35.73444867,-3.5069903334,-25.81129133,-2.4900538666,-22.410724666,0.079455475
6,21.75,20.748372852,18.56793124,6.6145387482,-0.002131687,406.75617672,17.057398666,1.7028601304,0.2331214014,25.65784467,96.604118002,96.663594334,20.784710544,34.132892002,36.45422133,34.91416467,-4.526748867,-25.664551334,-5.874895267,-20.783025336,0.078131233
6,22.25,16.34516394,16.0174037040001,3.5983033798,-0.0029179058,406.5185005,16.973146012,1.5008926458,0.1960183816,26.213249334,96.89685467,96.652009256,25.342211888,33.923778664,36.05755933,34.0035,-4.8999383334,-25.544626,-8.4433368664,-19.724942664,0.0693911184
6,22.75,15.345407236,30.1975945960002,3.499642689025,-0.0025449938,407.6436273025,16.93235989,1.765900899,0.212014258,26.577664002,97.260366666,96.640520398,25.65985396,33.887556666,35.641336666,33.268832664,-5.3232038,-25.149636,-10.265270202,-19.61136067,0.0696559904
6,23.25,18.987043932,56.1603417775,5.39598339825,-0.0023919994,407.0448327275,17.04915279,1.7048558436,0.2570248796,26.712606664,97.463352002,96.636795008,25.566655396,33.801996666,35.266892002,32.555110666,-5.261118733,-24.945357334,-10.59048467,-19.042972002,0.0919035104
6,23.75,14.593114,10.82365009825,5.08928481025,-0.00437667759999999,409.790262875,17.200990392,1.6391778832,0.2246092488,27.056953334,97.457771998,96.626210476,24.888307296,33.528882,34.892944664,32.00861667,-5.217014933,-24.40739867,-10.838025334,-18.077105998,0.0749530306
7,0.25,19.82397135575,25.959516325,4.7205034025,-0.001933927425,399.7018813525,19.22935082,1.24938116985,0.2095366578,26.05175483575,97.0347090015,96.749740101,20.805581472,35.47733283,36.64560908575,33.63622725,-5.82806252515,-27.2751905,-11.74346941575,-22.15416291575,0.06717301715
7,0.75,17.3901782805,24.235275984,3.541925418,-0.0021596147,398.5452697925,19.4586182245,1.4046286193,0.187655895925,25.94439116425,97.21268341575,96.73300007075,21.69227498525,35.33074516425,36.35613516575,33.11787008575,-6.10438999985,-27.11547525,-12.21334117,-21.5579715,0.077402935075
7,1.25,16.84807261725,38.54479397675,2.4995727736,-0.003183340675,398.891672525,19.291714876,1.45517128435,0.201587411675,26.20501066425,97.41871208,96.72931951525,20.8430062485,35.0438584985,35.97105817,32.5386797515,-6.31186135015,-26.97627833425,-12.63818858575,-20.96317633575,0.067173041425
7,1.75,12.83101344025,28.861429925,5.703986038075,-0.002322254075,399.5291147725,18.703329346,1.468254933775,0.226847069725,26.20000725,97.45620766425,96.72382097775,22.1966327775,34.9116095,35.6295304985,32.20703633,-6.493474108,-26.8465714985,-12.76859466425,-18.6043849985,0.080415572075
7,2.25,14.48391177775,31.52307210975,4.9319648345,-0.001782932825,399.0823739125,19.13423388575,1.615358045575,0.1910402122,26.66244067,97.52328333425,96.71988241075,22.09000548425,34.90764583,35.31061342,31.74572141425,-6.438623741425,-26.7814960015,-12.80048341425,-18.40370966425,0.074026023075
7,2.75,17.223707271,52.27837929575,5.03940840865,-0.003635007075,399.63819991,19.040206034,1.698914696175,0.218804507675,26.42474316575,97.4948464985,96.6991822785,23.1718026065,34.77433333,34.94588566575,31.3002499985,-6.242552141425,-26.79525408,-13.01209392,-18.78290241425,0.074026072425
7,3.25,14.4751281035,85.1850329582501,4.407607576375,-0.0038165162,400.588333445,19.2161577625,1.412544241575,0.20764654825,26.7930549985,97.63047641425,96.68588471875,23.47094736725,34.6111322515,34.7319374985,31.14262591575,-6.163076358,-26.37773683575,-13.19765942,-17.3249470015,0.073065949425
7,3.75,17.28115986,48.50705815825,5.01346385235,-0.0032484023,401.43274264,19.14000761225,1.36498894845,0.2569134402,26.95251417,97.72449225,96.704761619,24.38705170225,34.5348594985,34.46780575,30.86682317,-6.094344783425,-25.92333908425,-13.1115624985,-17.03327366575,0.070053244575
7,4.25,14.82104498925,18.99385276925,4.920924848675,-0.001835609325,401.6497876,19.33015959,1.432539631175,0.224651726225,26.34703116425,97.7626675015,96.7243721405,22.98116138625,34.21928333575,34.2044447515,30.492625,-6.08664047515,-25.32566875,-13.0815907515,-15.05154516425,0.161195392425
7,4.75,22.000851787,65.025332925,6.76431755725,-0.00193872295,401.68310014,19.371859335,1.37308813585,0.20494037425,26.48361091425,97.84977183575,96.71921538125,24.484621674,34.20239191575,33.91586391575,30.19175,-6.273650842,-24.9766662485,-13.05820783575,-14.06987008,9.900756263425
7,5.25,15.171162547,60.30933083675,5.17131392025,-0.0032257245,401.702393245,19.5151452085,1.64569209485,0.21596951735,27.53425575,97.93584675,96.72765877175,25.3205174895,34.1610604985,33.64841708575,29.8243125015,-6.49140505015,-24.87278033,-13.09695658,-5.83062028015,55.78050458
7,5.75,33.65315018625,86.08437077,3.964105876375,-0.00287334305,403.549907875,19.93159584525,2.0425498312,0.273586441975,26.6754585015,97.94680041575,96.74575718425,25.3210963315,33.89389242,33.3956094985,29.7236249985,-6.4730419,-24.38189683575,-12.78692975,16.55800165325,130.5771978425
7,6.25,58.21836083625,97.176104026,3.17526402075,-0.00298436175,401.365566755,21.6662798875,1.69645267325,0.29058062175,27.52013,97.8649833325,96.7920043,31.59445474,33.8008358325,33.232361665,29.5539583325,-5.927811333,-22.5968691675,-12.2034024975,82.7436274975,428.7493508
7,6.75,117.5579899,73.7821980025,0.1301243222,-0.00690956175,403.83745006,24.33019646225,1.99538607925,0.2877462665,29.396455,97.5955350025,96.8090757,38.031369195,33.5511075,33.0150024975,29.56604167,-5.3022945835,-19.568523335,-11.3284683325,194.2524667,679.385125
7,7.25,156.937316985,82.12678612925,-0.0539638493999987,-0.01181498205,402.87666985,24.4732023825,2.4991220487,0.315005815775,30.10766458,96.57242483575,96.8310774085,40.46752250525,33.41100533575,32.76799516425,29.80454166575,-3.72503757515,-14.0831505015,-9.66814734075,272.2693516575,893.8023467
7,7.75,178.3506938625,94.09101623075,-0.4701111052,-0.010814939325,403.175158265,24.3118123225,2.9501237472,0.347143143675,31.94971666425,86.07389033425,96.8398255635,47.71529946525,33.40695833,32.65511725,30.09560416575,-1.285970024675,-7.190350591575,-8.059889983425,349.8894891425,1101.621533
7,8.25,223.3712756275,85.43499127025,-0.7926212866,-0.019292840925,403.6028018225,23.836605211,3.0786950733,0.404345471325,33.52065391575,79.8398652515,96.839899737,51.7924345385,33.34014583,32.5929374985,30.78377175,0.260936038075,-0.302933971074997,-5.419800216425,413.9502966575,1296.128408
7,8.75,277.86332296,79.9797772535,-0.569396465625,-0.052806599525,401.779032405,23.4446667305,3.8494096899,0.466881979475,34.92326808,78.09506175,96.8438827495,54.309448923,33.17041666425,32.4029375,31.52910758,2.187777972725,8.618231492,-3.331946916425,474.3899333575,1473.308258425
7,9.25,326.2194058525,92.52949897,-0.278061144574999,-0.036635013875,399.5203557375,23.47958639375,4.563255177325,0.534468477875,35.49939,70.72811641575,96.82926365675,53.62083181,33.09189766575,32.34635416425,32.35031391575,6.478792775,24.53341358,-0.451322442575,528.2409708425,1635.7611
7,9.75,347.4486024825,113.1054724,-0.956432836024999,-0.0551576194499999,397.618509305,22.7618848535,4.535158724225,0.5453765877,35.72337191575,69.0432622515,96.82435642125,53.2930872875,33.01526908425,32.3405625,33.0418532515,8.673075041575,43.07223116575,3.17795519985,575.3052958,1770.48420015
7,10.25,393.7523134825,127.7116114,-1.152426775,-0.116332580475,397.876887855,22.722194695,4.661360834775,0.56891597765,36.0958914985,67.29799508,96.8177721325,54.10592393,32.93335175,32.36666667,35.18385275,10.171251275,61.0089682515,5.852998716425,607.7074608425,1889.35909985
7,10.75,421.12585709,108.8868063,-0.765037478400001,-0.158529617,396.73148363,22.97870802175,4.6836277337,0.5927518901,36.66690467,68.229626999,96.813661267,56.39468539825,32.786833331,32.505916668,38.020302,11.849666201,74.568424331,8.5092656332,623.2535067,1954.565467
7,11.25,439.52631125,102.943109225,-1.4980125784,-0.1777503546,395.97071152,23.176584504,4.9803995803,0.5947031942,36.244989668,68.14182867,96.803138377,53.6495677315,32.706796999,32.652000001,41.67805233,14.466595669,84.714233331,14.226292,648.15137001,2006.113933
7,11.75,471.37396608,114.03297911,-1.211207649,-0.1867063903,395.89522629,23.204531949,4.8076684879,0.6325472928,36.421639332,65.110971,96.789924319,54.055010063,32.704243,32.877997669,44.437193332,19.957517669,91.725526668,17.367304,646.4765233,2036.445533
7,12.25,506.52831908,110.3437190775,-0.431059132500004,-0.2155595193,395.76451934,23.197841948,4.7587797003,0.6324981682,36.694101669,62.633356001,96.78057624,55.0860883969999,32.736608,33.259999999,47.436943669,23.65437967,97.040547669,21.982996,642.81245999,2035.0508332
7,12.75,511.07742107,125.56358446,-0.765172159900002,-0.1823026711,395.46868506,22.93270942,4.8248389842,0.644696697,36.949460331,61.040281331,96.768630514,55.9232350089999,32.92616667,33.832331001,50.16644733,38.443796001,102.05193499,30.71576767,623.64254668,1988.124567
7,13.25,503.22561745,91.4455826475,-1.1025656808,-0.175641988775,395.59336325,23.125767109,4.6864875099,0.6505511225,37.36532833,61.809454,96.752542456,57.3618347249999,32.991665,34.571473999,52.539001332,59.42954233,104.95677001,42.143348999,587.10157668,1924.2466668
7,13.75,473.69484271,89.3137960875,-1.7450475356,-0.2040158459,395.8434738,22.786757159,4.9129091857,0.6483768964,36.978477999,63.568898669,96.739708125,55.6096601759999,33.17691767,35.296445668,54.323249332,66.73554533,106.54840999,52.985398,552.52462999,1832.8948332
7,14.25,466.75611926,79.79824316375,-1.2291266908,-0.1711105215,395.36392303,22.73085514,4.4982517062,0.609350661,36.425859001,62.32807267,96.738011311,53.4346553809999,33.352500001,36.11633433,55.722693334,68.254848668,105.25441999,60.55525833,494.53179331,1711.9921668
7,14.75,442.47455051,84.41579389,-0.2818701493,-0.1681066091,394.33440465,22.44005017,4.5633437916,0.6222949281,36.364422332,63.186098999,96.728822099,54.8540237909999,33.498365001,36.872969668,55.17375,68.385981668,101.00628601,65.127298332,453.48279332,1627.445033
7,15.25,406.74339099,91.3926927295,-0.321517673,-0.1986833888,394.52420818,22.430332532,4.6281835782,0.5964508834,35.918621,65.074214999,96.722708958,52.7147832039999,33.849782999,37.630525,55.16183866425,65.215486,95.189266669,67.596609001,398.86142001,1409.856467
7,15.75,367.59516733,72.2938304375,-0.246045183200005,-0.1889957392,396.48814427,22.452287092,4.5008653275,0.597207946,35.677068999,67.38090633,96.698719546,53.594031388,34.18544667,38.264166331,54.941470669,60.246189001,87.193679001,67.735424668,356.93967831,1351.0073
7,16.25,312.54131747,75.69052653275,-0.661726421300003,-0.1296858044,396.9674502,23.294507275,4.6622539139,0.5782752144,34.971863331,67.68478333,96.677563939,50.642351098,34.451666331,38.88508667,53.031749668,54.297785,78.29853733,66.004924669,224.5573233,1009.0772632
7,16.75,262.84956602,63.0912113429999,-0.455901715100001,-0.132208196,396.06217913,23.483923508,4.39511299,0.5420010147,34.656431669,68.027625668,96.664087269,50.0023017069999,34.773083332,39.17444367,51.469556332,46.736063332,66.368202,62.626592669,158.9304317,799.83541001
7,17.25,211.50523825,52.315876863,-0.5012440343,-0.1094563633,395.93411807,23.802648435,4.1414121172,0.4930773201,33.420078332,69.133576332,96.664728966,46.6312522279999,34.983941331,39.582361332,49.631919,38.389279331,53.088359999,57.664236001,75.621309332,578.01303331
7,17.75,159.96703449,36.134155117,-0.00858158430000046,-0.0793815892,395.62485259,23.394431204,3.8453106719,0.4480980336,32.094948331,72.74829,96.658717585,40.57760551,35.270525669,39.616808669,47.958306999,29.740396331,41.785247669,50.823952999,20.9642623799999,390.70431
7,18.25,100.409116898,39.3059497209999,0.371510042099999,-0.0398900204,394.74680796,22.368644476,3.8675033744,0.4252794946,30.650095,77.548943001,96.66538303,35.12600045,35.47543567,39.772365,46.375919001,20.644739999,29.463429668,41.81868,-27.7343208680001,182.0832087
7,18.75,42.031478202,30.4718143179999,2.2725924664,-0.0224882547000001,393.43771598,20.721501949,3.4337938332,0.4009878255,28.804474331,84.74097833,96.666728314,26.438546099,35.559336999,39.791806331,44.807,14.7680754,14.613068732,32.29205467,-56.91619867,40.9503193
7,19.25,11.685491537,18.0202350233999,2.8472855102,-0.0157948797,393.5801279,20.252003431,3.0950455201,0.3596559801,27.572135668,88.914442331,96.687909763,23.807104723,35.615781001,39.599309331,43.281251001,9.85437316889999,1.10411832599999,21.985541331,-61.568134001,1.952619599
7,19.75,9.67809267169998,10.4820871102,3.0737238222,-0.0121959841,393.70011916,20.265934545,2.4505243912,0.2932347267,27.241276331,90.647114001,96.723842269,23.666434004,35.642000999,39.461389668,41.907166668,5.64201016689999,-8.57255413310001,13.594947332,-59.72299333,0.0979951249
7,20.25,18.530238695,20.478484773,3.2018334326,-0.0041561218,395.59215332,20.231544549,1.8619979084,0.2256220152,26.255486,92.178584001,96.760710322,21.473838166,35.673779331,39.249027,40.584525332,2.32888547099999,-15.403054,6.9868622,-58.112241999,0.090711691
7,20.75,11.745841379,34.947557092,4.01594255885,-0.0035164182,396.76514296,20.123844336,1.5891873524,0.2152828343,26.025404332,93.308366,96.793245892,20.190838378,35.69110967,39.045332999,39.31216133,-0.025445203400005,-19.543245999,1.4366453509,-55.136959669,0.085414655
7,21.25,4.36041403049999,69.8084276169998,4.0563809985,-0.00247836050000001,397.26651602,20.027938929,1.331065841,0.2114341822,25.94589933,93.749331668,96.813535938,19.171234647,35.665781669,38.803052331,38.281369001,-1.712320053,-22.458862668,-2.7757259168,-48.420145001,0.0813094292
7,21.75,1.4595670271,29.1663029779999,3.46996548515,-0.0021626809,397.37758209,19.941447637,1.2006024189,0.1801040998,26.063891668,93.78444233,96.826011471,20.91211932,35.66445233,38.405505331,37.258164001,-2.987680133,-23.913789001,-5.8156803,-45.575166001,0.084355276
7,22.25,6.68618015849999,18.353653843,4.48816886039999,-0.0017567905,396.35954964,19.795077974,1.3903057171,0.1928910875,26.060198,93.931453999,96.819815535,21.763934315,35.642991999,38.10411,36.396112332,-3.9121842,-25.260145332,-8.113347467,-40.84123633,0.0711126869
7,22.75,9.9375202204,20.250386778,4.4607735847,-0.0025556428,396.88416512,19.614143532,1.6234794314,0.2102452446,25.980256001,95.481581,96.808485601,21.54589975,35.629773669,37.743000001,35.539331669,-4.4458007668,-26.207536,-9.4309869001,-36.415529331,0.0799851988
7,23.25,13.336967943,67.342072308,6.415414409,-0.0017635233,397.78920786,19.498631265,1.6898051239,0.2299390339,25.966392669,96.112806001,96.806447545,21.211056779,35.602672999,37.423251668,34.917192668,-5.0108211332,-26.909878668,-10.68265833,-32.91083967,0.0746881468
7,23.75,15.03459174,22.3884190019999,5.2691347468,-0.00192281040000001,401.045253225,19.466532427,1.3552948143,0.2212334422,25.656801,96.832781999,96.799421312,20.737091868,35.569,37.057752331,34.21082867,-5.4502019001,-27.34211067,-11.362013669,-23.884949332,0.0781312579
8,0.25,16.39089879925,14.86838763125,2.575016026,-0.00227862135,398.2298355825,20.733335734,1.6011889156,0.198747504,26.4509494165,96.5601204165,96.7739885415,23.91898540425,35.45183124825,36.57966242,33.25904266825,-5.557423075175,-27.53856100175,-11.99698658175,-19.98324475,0.0708809495
8,0.75,15.47819578625,16.44952172325,4.16854551965,-0.002386329275,398.5187766125,20.64281391125,1.473594446125,0.2235981535,26.1280735,96.9129836665,96.756866282,23.97408629825,35.2991066665,36.2634466665,32.64824999825,-5.786997017,-27.2017511665,-12.29896174825,-19.26592824825,0.0756151435
8,1.25,15.92202715175,41.957522261,2.7492677705,-0.00269079065,397.69408582,20.63866315025,1.265761337425,0.2494459659,26.00635650175,97.23392817,96.753547147,23.63638053025,35.2269978335,35.9027246665,32.25027724825,-5.900652799825,-26.80235108,-12.53624424825,-19.30954041825,0.0689938565
8,1.75,17.82905717375,19.678579019,3.286326617775,-0.001907191725,397.8043369975,20.49227887425,1.248815449025,0.21063008475,26.1286346665,97.43225767,96.73230582925,23.0863354225,35.14370658,35.59122158,31.78122391825,-6.030057291825,-26.24985467,-12.70555049825,-17.8996486665,0.06760343265
8,2.25,19.2721496415,22.13744144925,3.691159359,-0.0019494465,397.33629977,20.47650876225,1.557262956875,0.2517523035,26.06624408,97.5950635835,96.72397118925,22.03864814725,34.97337383,35.271721,31.28941667,-6.21172910835,-25.84756742,-12.68715625175,-16.16862841825,0.065583870675
8,2.75,15.216003298,31.5088784305,2.49958471325,-0.00211763605,398.123192755,20.69006524975,1.511140523425,0.236836582625,25.62123258,97.76377700175,96.7277566495,22.0737453385,34.77164525,34.92788941825,30.91692583175,-6.253300466825,-25.10644308,-12.53990083175,-15.52862267,0.065583873
8,3.25,22.02928011025,27.0438265375,3.1874917596,-0.001758485125,398.21895684,20.41146602025,1.309078862275,0.189931236975,25.99765666825,97.81073174825,96.72093771425,22.560493689,34.76706250175,34.71824358,30.50502083,-6.265816558175,-24.71263741825,-12.52105724825,-15.5947184165,0.063564393825
8,3.75,19.281289281,34.511427575,3.78463600715,-0.004538913075,398.46508011,20.499951607,1.341300110825,0.23349991445,25.38499108175,97.8402056665,96.71993446125,21.12652228625,34.5946426665,34.40025074825,30.05747916825,-6.261576283175,-24.69553866825,-12.7589988335,-14.0866214165,0.075747578
8,4.25,19.565335353,58.8750644819999,3.944066039725,-0.0029709036,398.7416724725,20.72747616025,1.4793274637,0.2893416861,25.6177521665,97.8632491665,96.72727487825,21.8600035975,34.41841825,34.12022333175,29.84097917,-6.24996155,-24.48173225,-12.97060624825,-14.26978983,0.0662129175
8,4.75,20.53133412475,68.267228846,4.0560071458,-0.0018555121,400.2012506925,20.5835813335,1.490120442375,0.232938578875,25.9498594165,97.91971983175,96.75170110475,22.6368293065,34.31462058,33.78756099825,29.4842916665,-6.242472008175,-24.180796,-12.91823791825,-14.52988658,1.574543306825
8,5.25,17.69451408675,35.558851718,2.8495761076,-0.00388286255,401.95558647,20.798444412,1.46578576795,0.25793306105,26.89112366825,97.88326791825,96.77372007425,23.12720082775,34.15250350175,33.51074725175,29.20414583175,-6.230207592,-23.87598092,-12.87329199825,-11.868068755,31.23264149325
8,5.75,26.818224434,80.7855197035,3.0165120325,-0.002882859225,402.76245149,21.4553185495,1.806534930775,0.263056238975,26.3503811665,97.9331546665,96.80125468125,24.2933043435,34.01089367,33.30564583175,28.8214791665,-6.18135171665,-23.19723325175,-12.71127175175,2.543311452675,99.89488991825
8,6.25,41.2589101365,49.0926490905,2.512917883575,-0.00420203615,403.5464333325,24.34245431625,1.652324271925,0.282530607575,26.8691719165,97.936734,96.82707161775,27.09628418575,33.85516708175,33.0448493335,28.71608333,-5.887913833175,-21.87140600175,-12.2561910835,56.89697120175,292.4300242
8,6.75,110.0178683975,80.285943444,1.158927327875,-0.005344309175,406.3813285625,26.692967655,2.0752186763,0.29438915445,28.46140458,97.7997309165,96.85072821,36.400577237,33.61955783,32.78624725,28.7216041665,-5.241169608175,-19.3766194165,-11.5257829585,153.0411467675,547.9496725
8,7.25,172.380496465,68.60311960625,1.66562031905,-0.01065834735,405.642257105,27.35591390925,2.27419019535,0.328655388175,30.18126133,96.44787725175,96.8432384435,40.982609282,33.4374155,32.65339583175,28.93389583,-3.781565583175,-15.4988906665,-10.097680031925,242.2834950175,780.7837966825
8,7.75,197.36820298,82.4120849599999,0.287708337749999,-0.00644291405,405.3216628475,26.8805349485,2.511778975925,0.357496416025,32.37408925,93.34243924825,96.8396164685,47.81188137825,33.4063541665,32.4406458335,29.3121041665,-1.82239084335,-10.791036881575,-7.991410767,326.9451483,1010.393418
8,8.25,251.379270435,72.5005355767499,0.00703127494999857,-0.0162581863,402.8497393025,26.16946242225,3.117331982325,0.377043136775,34.1355985835,87.75075024825,96.84485013475,53.5373295085,33.30145833,32.26237499825,29.8930833335,0.825583586149998,-5.24431571450001,-5.473667742,392.6814242,1223.317367
8,8.75,258.323856615,77.631180497,-0.71628517295,-0.0156074790500001,400.897685075,25.78066520825,3.52054835585,0.41647853105,35.3679636685,84.1976025,96.855993303,56.189571085,33.1155,32.11716667,30.5780121685,3.49607771685,3.58293263169999,-2.5120122,454.380456685,1411.893167
8,9.25,296.191659545,96.246138628,0.539853082999998,-0.0546766126,400.44700463,25.1587674355,3.9052994843,0.48514832535,36.4446435,77.83805217,96.8460074985,56.505686497,33.0864896685,32.11,31.25477767,5.71531925015,16.79226423,0.707754145349999,508.10120333,1581.4119
8,9.75,351.9526536075,71.42545019,-0.654963119825,-0.0646279467750001,399.383714045,24.842349835,4.175067182075,0.53490342735,37.26181858175,71.0633295835,96.83583172375,57.68003098275,32.81029300175,32.11,32.15882108,8.32877614165,33.29539758175,4.046240058,559.4075116825,1729.016025175
8,10.25,410.9792598775,78.9833636155,-0.77365827765,-0.114111761525,398.9871836025,25.03964224975,4.363608254025,0.578092531375,37.69301883,66.48530950175,96.82466992125,58.319553387,32.69412267,32.11,33.6815595835,10.345438631425,52.09146366825,7.408916141825,592.3121549825,1845.85173335
8,10.75,421.0230709425,78.76338102675,-0.0210635540500001,-0.200793053525,398.6593253975,24.87892284425,4.47936933165,0.586651225175,37.82567850175,63.36257674825,96.8095898565,56.6478455495,32.69302083175,32.11043749825,35.88040166825,12.9401450835,68.09221933175,11.95600035675,620.0287391825,1940.33625
8,11.25,467.35178239,73.326335168,-0.286139637700003,-0.1831630392,399.44133001,24.984689105,4.54914901335,0.59718888175,38.153018167,64.587038,96.8004701355,59.283923106,32.6889166685,32.2188749985,38.8921388315,17.4854370015,80.4766925,16.20168,639.6831233,1987.28385015
8,11.75,485.9725677825,79.325589852,-1.018628617375,-0.22386636495,398.23450585,25.20259894475,4.63099972055,0.658545632375,38.77533466825,63.12049974825,96.78792459475,62.90237321675,32.69056249825,32.52375000175,42.46251342,26.13999958,89.11454483175,20.20661733175,641.9029158175,2011.78315835
8,12.25,476.177842435,77.49635380375,0.221748827299998,-0.2327607437,398.17955116,25.15911456325,4.6116946484,0.623232485575,38.7834560835,59.79475467,96.7704961605,63.036720677,32.68916667,32.86483375,45.84104908,37.41299191825,95.20674008175,26.90256566825,632.3558617,2004.347266825
8,12.75,479.15351316,85.9057194,-1.2387766275,-0.2527407983,398.34075989,24.87006286275,4.63674228975,0.62502301785,38.70542658175,58.3315461665,96.762438239,63.09565211375,32.69293749825,33.41244375,48.91251283,52.8180388335,99.017882,36.29926683175,608.5589916825,1966.11051665
8,13.25,487.09535358,100.852161945,-0.88698577505,-0.168285244075,398.07992845,25.25871167975,4.7284193063,0.643981544425,38.65697641825,56.80758517,96.75105781425,62.80250428175,32.73047450175,34.12805783175,51.56371749825,66.54642117,100.78225043575,46.79515524825,581.419798335,1914.31788335
8,13.75,478.60862074,80.3380692587499,-0.994743780900001,-0.1438508306,400.8862168325,25.42404990825,4.605056634825,0.626315088475,38.50383925,57.17053733175,96.71996606425,62.72827635,33.02093325175,34.86819274825,53.40927083175,72.43871058175,101.1923555175,55.20361075,542.180394165,1830.739492
8,14.25,449.6485363575,84.418484631,-0.980188027100002,-0.180822826775,399.470816265,25.12995161,4.536388668425,0.61141967595,38.35942375175,58.85821058,96.67943610225,62.927436263,33.20314583,35.60755391825,54.95575174825,73.67932741825,99.4731177325,61.56560424825,490.314868335,1664.77436665
8,14.75,439.2301822975,86.1085491399998,-0.57420220005,-0.1898106551,398.877702975,24.60771360775,4.51951821995,0.6149018372,37.7587603335,58.68757575175,96.654540816,61.4954288895,33.40954050175,36.41983058,55.79854441825,71.4869625,95.517113,65.34792467,428.513140835,1522.85141665
8,15.25,410.0802657825,74.47112270125,-0.208998370075002,-0.183656870075,397.70167001,24.67207579625,4.555168850275,0.586618723375,37.32637766825,59.76499842,96.64712772525,59.710702974,33.66519375175,37.1304229165,55.07614525175,66.79867933,88.95000042,66.6410873335,354.454354165,1328.177024825
8,15.75,391.11479038,145.2594390925,1.03099889879999,-0.176361134525,396.86971463,24.53735926325,4.678106456175,0.62397635315,37.10630291825,60.94281891825,96.63422041175,59.281222648,34.0735595835,37.81697274825,53.812125,60.40852975175,78.75567592,66.13780424825,287.7685475175,1138.74705835
8,16.25,350.05821318,59.9928519975,-0.458681543475001,-0.14747587835,396.6560622825,25.6989177905,4.4656826819,0.58465141535,36.6448399165,68.13488574825,96.63776330475,56.3779097875,34.2935553335,38.3364375,52.50883175,52.98290333175,67.489851,63.02343125175,209.8349458175,936.2085675
8,16.75,271.1473506325,100.97969319725,1.431412391975,-0.095785229325,396.5415949375,25.077098881,4.5168613021,0.56902430945,36.37471808,69.710513,96.645679651,56.1725758305,34.6502451665,38.8161800835,50.37246025,43.84628625,55.62091125,57.88685474825,125.1536371825,711.0294175175
8,17.25,209.282852115,58.9715339144999,0.287762347324999,-0.110095104975,396.7281199075,26.66532112525,4.30812017045,0.5199059637,35.59809933175,70.60277191825,96.6523925625,52.73406720775,34.87493749825,39.0228241665,48.58483449825,33.30702883,43.58284291825,48.38730516825,57.59787300175,501.1450833
8,17.75,122.8422788625,54.0240536,0.5169691463,-0.064287494875,396.7465787825,25.5883464655,4.008783330725,0.498365060175,34.3329318335,73.03771100175,96.668103121,47.1832289875,35.06828658,39.33458099825,46.99494508,22.15643166825,30.74140267,36.89747083175,3.74472685199999,294.423748335
8,18.25,77.946423525,32.408565621,2.447626548025,-0.021111770675,395.8323426325,23.83546618625,3.65336986945,0.434395972775,33.49356366825,78.95181933175,96.68216820275,43.56721265925,35.31916275,39.3725,45.35199999825,16.44667425,17.71119950175,27.22078133175,-30.14993296825,112.101445835
8,18.75,27.163139226,21.21482884475,2.60554375115,-0.00709041882500001,395.7110859625,21.61349060525,3.420743561075,0.374736591725,32.2794296665,84.28144075175,96.70568232025,37.9218021695,35.49436000175,39.3725,43.72191666825,12.3185777415,3.25355677465,19.11726108175,-55.69747192,14.2195973585
8,19.25,10.247276560575,5.506284873825,2.97440598675,-0.01066177465,396.1493744075,21.74787113575,2.810456361725,0.334723011175,30.98677074825,87.59090017,96.7362828425,35.02400335825,35.59691417,39.36739175,42.23638008,7.841888550175,-6.1821069,12.08585254325,-57.123472,0.22939467715
8,19.75,8.03522451675,20.20649083475,3.67737147685,-0.00464461245000001,396.41126021,21.47514003375,2.529192173525,0.324779496825,29.9433586665,90.02385550175,96.7665442345,32.237403083,35.64742433175,39.20401541825,40.8371220835,4.178918666825,-12.03569207325,6.29105183335,-55.2924585,0.081474997
8,20.25,10.288857649075,51.4210495637499,4.351382391275,-0.003227599775,395.8527471725,21.4615417055,2.100963263425,0.270310731075,28.79757974825,91.5865860835,96.79439049975,29.066223191,35.72856133175,38.95799841825,39.53827258,1.568799730175,-17.29911917,1.7523472721,-49.73324675175,0.07813126
8,20.75,5.11621283599999,13.749943525,2.835957777425,-0.00298119535,398.0785480075,21.31747951825,1.9789731249,0.240654509875,27.87559033175,92.39362675175,96.81183020925,26.38595386925,35.84161667,38.84569183175,38.46867933,-0.285283772425,-21.2718779165,-1.80708839165,-44.15830533,0.078131243675
8,21.25,5.46024515315,11.968164649,2.60535515965,-0.002014081975,397.121201555,21.1301079535,1.7302424942,0.21944856015,26.7946016665,93.2845698335,96.81387490575,21.90257294725,35.85314075175,38.47622274825,37.5135891665,-1.683607442,-24.19764500175,-4.604347825,-42.68324642,0.0848849575
8,21.75,6.43065983237499,50.284663958,3.851825794325,-0.00254218635,400.66843726,20.967934039,1.7637406015,0.206184626825,26.79322100175,93.9039011665,96.814094043,20.74287814975,35.83553133,38.18220367,36.5771164165,-2.763997233,-26.20604883,-6.802328067,-41.97042775,0.077568424325
8,22.25,5.6812938054,37.3593242135,3.18905595155,-0.0011441177,396.9418327175,20.7557476935,1.596816324325,0.160807767775,26.72666391825,94.19457217,96.81074595925,21.097827106,35.74586100175,37.93763708175,35.66513916825,-3.596722974825,-27.44663550175,-8.55040904165,-36.9664125,0.080779755175
8,22.75,9.85365023164999,17.468677521,2.79457857545,-0.001853960475,397.132451265,20.68206360975,1.294575212275,0.16042695425,26.61977774825,94.581727167,96.809498097,21.671692863,35.6487511665,37.59527450175,34.9311608335,-4.223218608175,-27.78535224825,-9.71890286665,-34.17865549825,0.070185713
8,23.25,18.469828086,9.90435995739999,3.30895512874999,-0.000965408125000001,396.855160505,20.66549816775,1.282975972,0.213544727325,26.06046000175,95.79348867,96.79105122025,21.91945294575,35.5911194165,37.2701088335,34.29022275,-4.676039408175,-27.38490583,-10.69069750175,-22.9366888335,0.074853707
8,23.75,15.66049835825,34.39774657525,4.778435944325,-0.002621996,398.08840606,20.57207147025,1.307988561225,0.207294957075,26.01949066825,96.28866933175,96.76690782,21.978692828,35.51983158175,36.90463241825,33.5812529165,-5.144084008175,-27.38479149825,-11.371676,-21.29967491825,0.074158447175
9,0.25,12.5596151645,27.68097605875,5.8765102936,-0.0023331711,433.31929745,22.522648691,2.57658180405,0.33580012195,28.679643,96.9131171685,96.8540109395,26.1170874525,32.7015561685,33.311041667,30.71,7.65718,65.8477,15.8253,544.463,1711.75
9,0.75,25.1647921555,37.16037893175,4.215158207125,-0.00290984925,442.06498483,22.372769489,1.93422585295,0.2970153514,28.3985490015,96.9396665015,96.852622203,25.273006834,32.6918749985,33.0144151685,30.71,7.65718,65.8477,15.8253,544.463,1711.75
9,1.25,15.5670425285,19.449497209,3.840080674375,-0.00223834725,426.48148553,22.5772926115,2.19359691155,0.25920094885,28.2737858315,97.02042883,96.8294782545,25.364324178,32.6674999985,32.74916483,30.71,7.65718,65.8477,15.8253,544.463,1711.75
9,1.75,14.1836222765,23.826779074,5.7326700046,-0.00398420005,433.8437638125,22.157197399,2.09237771635,0.24627600855,28.2875829985,97.16290783,96.8141371785,27.0065070885,32.5299999995,32.5061249985,30.71,7.65718,65.8477,15.8253,544.463,1711.75
9,2.25,12.2861014805,40.227810596,5.71905013985,-0.0027069124,429.6301474775,22.152095068,2.33342416705,0.286861039,27.97639217,97.383647167,96.7923651145,24.6328915065,32.3619583315,32.24583383,30.71,7.65718,65.8477,15.8253,544.463,1711.75
9,2.75,20.23519057,37.9902167747499,4.2005526492,-0.00179593735,431.0211849775,22.0855364505,2.4174711743,0.30226495165,27.8134419985,97.4622181685,96.777079411,24.1596951185,32.1583333315,31.9446249985,30.71,7.65718,65.8477,15.8253,544.463,1711.75
9,3.25,12.9800460185,27.039202176,7.09602089975,-0.0030967422,444.8223220625,22.020523658,1.99000671105,0.27540564415,27.8894215,97.5754005015,96.7648705995,24.267897719,32.11000741475,31.67294383,30.71,7.65718,65.8477,15.8253,544.463,1711.75
9,3.75,16.3725266015,86.0033849800001,4.36860277575,-0.0016014041,416.896298125,22.11658355975,1.9173470731,0.29569454415,28.19332517,97.699804333,96.7683335705,24.59881732,32.08020016525,31.4207500015,30.71,7.65718,65.8477,15.8253,544.463,1711.75
9,4.25,13.4844942015,49.12602923875,4.30494629375,-0.002327701675,424.75995388,22.4117508285,2.8955743212,0.338454644599999,28.2085739985,97.750121167,96.773171365,25.5504950585,31.78993966475,31.2083735,30.71,7.65718,65.8477,15.8253,544.463,1711.75
9,4.75,20.796125867,49.580282164,5.8535956013,-0.00254397815,437.08187906,22.798691564,1.93096349135,0.32230949015,27.826021667,97.7819483315,96.783625672,24.0152767665,31.69972916525,30.92869567,30.71,7.65718,65.8477,15.8253,544.463,1711.75
9,5.25,14.2125181535,157.85900846,7.86290281260001,-0.00350037250000001,454.8484032,22.90044528,2.39092954975,0.3156203569,27.3903759985,97.782573667,96.805165109,23.5889233315,31.4960000005,30.652012667,30.71,7.65718,65.8477,15.8253,544.463,1711.75
9,5.75,13.657849833,82.239959364,5.50493284865,-0.0027895182,437.43062146,23.099783572,2.0309226443,0.23732905905,27.9268591685,97.8121013315,96.8328727495,24.0524312435,31.4024375005,30.455833333,30.71,7.65718,65.8477,15.8253,544.463,1711.75
9,6.25,24.756161459,59.69604979,4.5685330556,-0.00253190315,430.327479575,23.30004338625,2.20587280495,0.38748586785,28.3145638315,97.8570755,96.854551442,25.941911968,31.3956875005,30.23895833,30.71,7.65718,65.8477,15.8253,544.463,1711.75
9,6.75,53.370369191,71.523308674,5.175294443,-0.0016704767,406.493785445,23.5608763185,2.2368995968,0.35572684785,29.403462,97.8655683315,96.872987566,31.976880718,31.26802083525,30.0667083315,30.71,7.65718,65.8477,15.8253,544.463,1711.75
9,7.25,110.493928545,94.3198364129999,1.716929095875,-0.00642096785,432.83165206,25.217892135,2.61370911815,0.34238275035,31.049484333,97.6464029985,96.931151644,39.7125018655,31.1159032495,29.8533750015,30.71,7.65718,65.8477,15.8253,544.463,1711.75
9,7.75,166.57370207,149.6144299,1.5942937218,-0.01091450215,436.34737024,25.254373169,2.56159293865,0.3634724515,32.003909,96.526970167,96.922538466,44.46433197,30.94910983525,29.819375,30.71,7.65718,65.8477,15.8253,544.463,1711.75
9,8.25,181.35628831,94.95469542375,1.627052239,-0.00868350210000001,423.16148667,25.938359321,3.1559635497,0.3807653166,34.20922383,94.6395140015,96.9227343865,49.37126714,30.77375192,29.69966667,30.71,7.65718,65.8477,15.8253,544.463,1711.75
9,8.75,233.169123805,140.68126706875,0.2624259268,-0.00844282725,420.07967183,25.4001580255,3.53249253825,0.4281076855,36.1078253315,93.7341178315,96.9048113615,55.982860884,30.70887308,29.6467500015,30.71,7.65718,65.8477,15.8253,544.463,1711.75
9,9.25,274.54990855,135.18624146,1.213005388425,-0.0189621095,412.8562697425,25.768076267,3.6373598297,0.49363694075,36.56512875,95.0265309995,96.90022761775,54.958479387,30.634666668,29.67364583475,30.71,7.65718,65.8477,15.8253,544.463,1711.75
9,9.75,318.67998972,134.1605164875,3.03104150175,-0.027355488525,423.0389596425,27.203089536,3.933721128475,0.531730432325,38.16494783525,95.59645383,96.86214945125,61.436330836,30.589500002,29.69160416475,31.14886758,7.65718,65.8477,15.8253,550.1974608525,1711.75
9,10.25,358.08766153,174.80003173,1.36517859025,-0.082167891775,420.35337857,27.5739272445,4.51423292885,0.6617638619,38.563024167,91.2917835015,96.8903088075,61.4656490455,30.5669999995,29.7744166685,31.72951633,9.019316333,72.6759335,15.8253,569.17877667,1773.2396667
9,10.75,379.1137782025,152.7749385725,0.9423010018,-0.0660015225250001,402.0105790525,27.1896459225,4.564455010675,0.61201604275,38.35530025,85.36551633,96.87465633525,60.1542349165,30.519500002,29.90489583475,32.60396166525,12.80400216475,91.8972642499999,15.84919891475,590.7804492,1858.17127495
9,11.25,416.2077614775,173.853735725,3.2183010798,-0.0980074848,400.915835865,27.2326292765,4.81117046465,0.68425055055,38.44815133,80.043021334,96.85191620675,60.73993050225,30.50656249875,30.071,35.145222666,18.28420467,105.989834648,21.680615334,601.3054267,1909.8081998
9,11.75,429.58223536,194.6837945625,6.97167673175,-0.163330225775,399.01507764,26.1620129415,4.7770076504,0.701795983375,38.2217864995,79.88624158525,96.83227514825,60.41458793875,30.533833332,30.29210417,38.4618617505,26.85239392,114.7285058,37.764016,612.3566483,1928.965908525
9,12.25,462.88039238,160.722310875,3.3086359388,-0.1262677057,398.2924718825,26.9621896865,4.86238664255,0.7642194362,37.89820975,80.2606894995,96.8047409835,59.1913038375,30.578999998,30.61514583,41.36861517,38.80385741475,118.034182495,52.78587283475,599.049350005,1915.539
9,12.75,468.032261395,147.3519373,5.157326560225,-0.1640303747,398.730237735,26.097505118,4.76723900585,0.727747810649999,37.97597308475,75.46727858,96.7846859015,59.5522367855,30.588833332,30.99076958,43.8579074995,53.9380874995,118.4942183525,62.81776883475,563.26369,1868.233491525
9,13.25,455.69925905,113.34259698,4.69261918760001,-0.17019406945,400.2106759225,25.8452671325,4.634611783075,0.712463242625,37.525383,73.03121883475,96.75653445775,56.92081145975,30.676333332,31.38721575,45.76488258,61.4452007495,114.9783683475,69.19824791525,552.062282505,1785.628633475
9,13.75,439.23927415,86.429121565,3.48848131989999,-0.136225568375,398.161336825,26.1872349275,4.6458958552,0.65082851725,37.64891692,78.7883605799999,96.73789099475,58.07138130075,30.714441998,31.99006991525,46.96309991475,64.605970666,110.7331833,72.14561233525,544.463,1711.75
9,14.25,421.8594787075,101.8795340445,1.739900062,-0.1453155602,398.7207437825,25.7364138925,4.5654330976,0.747826583925,36.98024033,78.91256541475,96.7158193715,54.51059974025,30.960886668,32.73539583,47.4749887505,68.12468542,102.10480548225,71.21949483525,544.463,1711.75
9,14.75,396.166613095,95.0922465425,1.5775881114,-0.131882521875,398.5950318625,25.47544200175,4.8677849993,0.7267484542,36.92539891525,76.94276841475,96.69553193625,55.18361847,31.260779998,33.44674983525,47.32757592,62.58104583,91.69391258525,69.70444816475,544.463,1711.75
9,15.25,358.18263586,99.509951284,1.43634461925,-0.0958538322,399.0729995075,25.243736231,4.688705711225,0.6894512854,37.31311141475,76.2448377495,96.6883311635,56.6772625985,31.344666666,34.1503442505,46.5492012505,61.962421334,83.24965758,65.70900816525,544.463,1711.75
9,15.75,319.6920303,83.168677803,1.2759520908,-0.1250977862,400.0503611225,24.9634654835,4.582686036775,0.663710714074999,36.8107105,79.06962908475,96.675179981,53.29304337425,31.45183333,34.71136016525,45.73945075,53.62520733475,69.31002566475,59.75344291525,544.463,1711.75
9,16.25,248.841906625,68.4829145595,1.7223761576,-0.0931260429250001,400.9654446575,24.93272738225,4.600032102025,0.666162507724999,35.48027583,84.28013541525,96.674725718,47.3419002445,31.757666002,35.18198866475,44.65095691525,47.70305233,65.8477,54.18332133475,544.463,1711.75
9,16.75,197.3720999075,36.180820564,2.625577669825,-0.0715021756,406.784282055,24.31354017825,4.19529314905,0.6586091303,33.05487641525,87.91348133525,96.67770646525,42.952452645,32.04406108,35.52967842,43.48318166525,35.94982208525,65.8477,45.1603932495,544.463,1711.75
9,17.25,122.1492130475,74.7438208700001,2.374741208125,-0.0459658503500001,414.8250851425,23.94129162075,4.2653437634,0.6485643876,32.4601612505,92.78090275,96.68223997825,38.012961998,32.325111998,35.75133,42.30218042,22.8496854995,65.8477,35.20580025,544.463,1711.75
