DOY2,HR2,H,LE,FC,TAU,CO2,H2O,WS,USTAR,TA,RH,PA,VPD,TS_1_1_1,TS_1_2_1,TS_1_3_1,G_1_1_1,G_1_2_1,G_1_3_1,NETRAD,PPFD_IN
1,0.25,-26.90004892,-3.53072480825,-0.465345961,-0.037332713,401.844402025,6.66093373125,0.77435562575,0.109283428,8.53296635,53.43421333,96.7403061525,1.34555737,12.4509041725,11.5783966775,8.979374975,-13.2990541675,-33.5269833325,-21.8495891675,-73.37467167,0.0212
1,0.75,-35.8375087475,-0.379839595,0.549938188,-0.058926896,401.379176875,6.561812265,0.828339822,0.1023742755,8.5242574,48.524991665,96.732609485,1.3663472625,12.369515,11.4950725,8.766667675,-13.5761983325,-32.8832741675,-22.00062333,-71.9597425025,0.027475
1,1.25,-34.538890915,-1.88757725075,0.322557606,-0.047593196,401.07054125,6.621306811,0.839876043,0.0991401055,8.84827249975,51.44061667,96.72798958,1.31097282,12.326180825,11.3816025025,8.55548742525,-13.0647849975,-33.0428658325,-21.90878583,-72.3125816675,0.02519022325
1,1.75,-42.9636275975,-1.527147404,0.5934284335,-0.073120755,401.7092901,6.48011415725,0.93810652725,0.09052238125,8.5968789165,52.29938083,96.73012641,1.45739762,12.29263585,11.219515,8.49326399975,-12.8959491675,-33.18913833,-21.9930649975,-70.2773675,0.022175
1,2.25,-35.6287619375,-6.295411731,-0.559886024,-0.0405882615,401.109256525,6.33533899975,0.83728385875,0.089746182,8.51556457525,46.84878333,96.726797055,1.33749431,12.2310425,11.06110835,8.31882032475,-12.879244165,-33.071680835,-22.0380791675,-71.8907908325,0.02383667175
1,2.75,-31.2618422725,-1.15205658925,-0.32289526825,-0.044603578,401.45818395,6.3519466205,0.79541994225,0.100768285,8.25814375025,47.2283025025,96.7167007175,1.2884957,12.0886108,10.901459175,8.170346675,-13.059361665,-31.4707908325,-21.787730835,-71.3229225025,0.022175
1,3.25,-24.2825377325,-0.8827350065,-0.175916012,-0.03351329225,402.3805124,6.1908000865,0.84144133025,0.08946583075,8.43426574975,51.760261665,96.7285564525,1.39294275,12.0552033,10.753614175,7.99215292475,-12.27048833,-32.2173258325,-21.95963917,-68.848034165,0.022175
1,3.75,-33.7105987275,0.186902456,-0.175234572,-0.04461025025,402.1652697,6.3594252035,0.78685393525,0.09964322325,8.24638514175,52.3486050025,96.728814545,1.389342705,12.003406675,10.6629167,7.790138675,-12.13252083,-32.2804808325,-22.065931665,-68.82333417,0.022175
1,4.25,-33.30663902,1.12385204,0.257646346,-0.0479317405,402.06556995,6.4064888025,0.67136615125,0.09119987075,8.342946475,51.744705,96.7245059575,1.2150795525,11.932229975,10.564925,7.60854199975,-11.937384165,-32.1348375,-22.0801124975,-68.21695917,0.02482066525
1,4.75,-28.0282098975,-0.4969179,-0.774112112,-0.057207187,401.782940425,6.3738333565,0.7266418295,0.104959871,8.583918325,50.811525835,96.7253177975,1.3007334025,11.803054175,10.366038325,7.445764333,-11.36018417,-32.63901833,-21.9905800025,-69.2274974975,0.0225
1,5.25,-29.546361625,-0.592238884,-0.3687538005,-0.05323684125,401.83781215,6.39755404775,0.6291418515,0.09444029225,7.971305175,52.1681324975,96.722806425,1.115860735,11.755139975,10.2607667,7.364235917,-11.9092533325,-32.7002075025,-22.174936665,-69.04244417,0.02845
1,5.75,-30.0091920525,-0.335427529,-0.40765902125,-0.052950771,402.3785632,6.382646452,0.825383528,0.10028213775,8.0289903,52.969494165,96.7270824225,1.212021965,11.671112475,10.1306889,7.2443056665,-11.4368275025,-32.73846917,-22.5758849975,-69.3926466675,0.02649629175
1,6.25,-28.5901130275,0.525503854,-0.4048090665,-0.041054654,401.3961748,5.97317382925,0.89700701925,0.0902079775,7.98027305,48.7171475,96.754707215,1.1882671625,11.5627775,9.97527544175,7.15833375025,-11.3112474975,-33.21878833,-22.979610835,-70.933033335,0.07415849325
1,6.75,-30.843836075,0.035853766,-0.33048439025,-0.04387465675,402.5417398,5.90959494125,0.7008477225,0.10244385975,8.26019924975,49.57607917,96.7713382675,1.4023880825,11.489655025,9.83764057525,7.07159716675,-11.15727583,-33.177264165,-22.9087725,-64.282665,7.69295347525
1,7.25,-29.98911403,1.04294443025,-0.2556043225,-0.05117344625,400.47917705,5.911282218,0.71442661125,0.0930408755,8.33939067475,49.29617417,96.77517385,1.29607894,11.3693108075,9.761457675,7.06298649975,-10.756332915,-32.554685835,-22.697854165,-52.3116025,48.80092417
1,7.75,-25.9285935175,2.65676439525,-1.0030985075,-0.07803660075,401.00744015,5.825051237,0.6797887295,0.097046701,8.184023425,50.3596216675,96.8141524875,1.373844495,11.2598541775,9.66902674975,7.05243100025,-9.67096599975,-31.0589558325,-21.70443083,-45.4689891675,84.6178216675
1,8.25,-16.3062237425,8.25700167175,-1.47013565225,-0.053787884,400.17275595,5.89348386,0.699898308,0.1100226065,8.8813308335,50.375156665,96.83610912,1.3767005,11.236388315,9.5968051665,7.1161115,-8.499570833,-27.842878335,-19.875375,-37.00635167,105.06211835
1,8.75,-4.602487415,13.95035999,-3.02110116375,-0.07546888125,402.3916143,7.749297441,0.5846021925,0.115047039,9.80772595,49.4961866675,96.8649336425,2.1490221125,11.2060458225,9.48367891675,7.13076492525,-7.8336810835,-24.324149165,-18.28970667,72.7539352325,310.5165417
1,9.25,22.621873055,27.168460725,-3.663124247,-0.074533733,404.487037825,9.15228697775,0.4971054455,0.129523308,10.753865655,48.1040475025,96.89825371,2.99043209,11.1368808075,9.55902775025,7.364930417,-6.886288167,-18.955154165,-13.5710493325,116.447324275,420.822164275
1,9.75,46.309026395,31.60600801,-4.52427583575,-0.09483562775,403.975291775,9.038298842,0.601507673,0.135899107,11.2524666675,38.8522025,96.9063534075,3.7214643125,11.09827,9.56520925025,7.77604189175,-5.4978506665,-8.7933986,-4.612769817,153.29301665,514.28196665
1,10.25,47.511970255,37.570053435,-4.738759606,-0.11703356175,402.633353925,8.07138332825,0.8171463625,0.14919304475,11.683768335,37.7724525,96.9091713875,4.17456603,11.088755,9.59416599975,8.560764325,-4.12530375025,10.06424919,2.8230633595,146.1830517,649.8873
1,10.75,66.0650636525,40.758728655,-4.58062937425,-0.119465347,401.33902795,8.2089133055,0.910350004,0.16494184975,12.4339600025,33.584370835,96.9015363975,4.709345435,11.0881941725,9.661457925,9.522499825,-2.89210925025,28.3830141675,10.79871066425,201.999359325,705.548225025
1,11.25,72.298313675,60.958391915,-5.155526124,-0.1492187605,401.416315775,7.999226689,0.99858201975,0.1830690135,12.96499,31.71681667,96.8579931625,5.18611575,11.0892441725,9.769584075,10.254169425,-1.89982013325,37.194884165,19.7287075,204.49346835,872.8060667
1,11.75,50.6915834625,49.3355777325,-4.76402249625,-0.14883949975,400.763983625,8.08642035025,1.174545473,0.195034256,13.02808,31.928463335,96.807530935,5.32730243,11.0913941775,9.91388785825,10.94584083,-0.38311345925,41.9202924975,25.3867499975,175.81611165,681.2505
1,12.25,75.08153277,49.37750284,-4.94130783025,-0.1580174425,401.2726776,8.075341423,1.39944387,0.208795851,13.2580050025,30.920186665,96.783356585,5.5452064,11.0955575,10.1797933325,11.775075,1.706354451,43.437165,26.76802,202.6320196,690.147825
1,12.75,64.919589305,54.82039796,-4.496934946,-0.159940241,400.49966605,8.2371995865,1.4421117285,0.23968216275,13.2034199975,29.80515667,96.73592153,5.55651907,11.152925,10.4441683325,13.7237550025,4.503724583,40.618043335,30.699995,184.829108325,671.380666675
1,13.25,65.83302887,46.621923895,-4.002279664,-0.1939194525,399.993639525,8.391547162,1.533989641,0.234972523,13.3902566775,30.23322833,96.72296973,5.8245506225,11.2333300025,10.9245166775,14.6234058325,5.6105431665,36.42911,27.83020333,189.427,695.02266665
1,13.75,49.91329052,55.058115615,-3.77769116025,-0.198832495,399.3972024,8.853067785,1.69001770375,0.2521252745,13.3844333225,31.6558233325,96.70247375,5.456704025,11.3183333325,11.4868733225,15.4721550025,7.5565310835,39.36558667,26.37828333,150.744005,613.84438335
1,14.25,55.06202745,48.917175995,-3.836773888,-0.1590922045,399.0720326,9.156727027,1.6046494375,0.22712820875,13.24503165,31.504299165,96.687940745,5.6782695425,11.5272208325,11.948611675,15.637348335,10.20912083325,35.3967,24.572063335,127.43913,497.9121
1,14.75,35.68262546,41.37349608,-3.64358401925,-0.1765037965,399.48699855,9.17753446925,1.842139785,0.262445327,13.4133366425,32.5958150025,96.692113,5.78807318,11.7181258075,12.5211808275,15.818608315,10.3344765825,29.16438167,20.9462283325,92.13728,382.69755
1,15.25,30.073385625,30.50481218,-2.6113357305,-0.160728909,399.232460075,8.766163109,1.908412621,0.2561245185,13.0781275025,36.949616665,96.66441937,4.6707748325,11.8983333325,12.717010825,15.645838335,8.892437667,22.034601665,15.913270085,61.55625283,319.6857667
1,15.75,10.30685636325,25.1172758,-2.15200677725,-0.134530478,398.643355925,8.69827401575,1.83634558725,0.225399162,12.7741725025,38.2772683325,96.6814917425,3.8647130975,12.133680025,12.799235,15.13084,6.78117224975,16.1460241675,10.8815749975,25.0144275025,197.0129917
1,16.25,0.1053866945,15.61976727,-1.7915380385,-0.119771312,399.0070791,9.0647223645,1.691413943,0.1828910825,12.4236133075,40.860573335,96.6976433225,3.5248925875,12.3330558325,13.0213858275,14.857356665,4.496006,8.19801466675,6.417469917,-10.81925208,125.844989175
1,16.75,-15.501218935,3.448144646,-0.8123630155,-0.071252014,399.4140257,8.76760888775,1.291547262,0.148670492,11.9268924975,46.8182833325,96.7167116725,2.844034315,12.5775599975,13.098614175,14.4496566925,2.30260996675,1.62301729725,0.89918812175,-54.706835,36.075129415
1,17.25,-27.01715666,-0.3434103895,0.619727053,-0.0535237255,399.15118465,7.88271201275,1.16672774,0.1086230255,11.561595835,50.9574924975,96.727841105,2.221393305,12.6779191925,13.2271516425,13.6982708575,-1.173371775,-6.389098225,-2.95765622475,-79.85918667,1.92315451025
1,17.75,-24.15845097,-1.6605987595,0.441482917,-0.05938882,399.44800165,7.57533536975,1.11997091025,0.108258027,11.158996675,52.2080516675,96.7180104425,2.164327765,12.774652475,13.2454841425,13.0120799975,-5.49533466675,-14.778063,-7.71763974975,-81.21679333,0.04732995025
1,18.25,-28.223042595,0.3136705825,0.948559532,-0.042269706,400.2179935,7.52857661875,1.08471141225,0.08495295725,10.7781258325,54.7081400025,96.7140933875,1.94280047,12.85042085,13.1563866925,12.67868085,-7.8964733335,-19.5722908325,-11.0518850025,-79.75052583,0.0291336915
1,18.75,-37.74549077,-0.8242110175,0.838151048,-0.04076916075,400.375371125,7.5507518825,0.875501571,0.08773405775,10.1383461775,53.7357733325,96.7542433,1.801539615,12.8018774975,13.0162500025,12.1743817,-8.97465325,-23.275684165,-13.43195,-76.444158335,0.025190225
1,19.25,-36.69764448,-3.48919310325,0.767304548,-0.0510931515,400.0614753,7.621075277,1.179300453,0.07484415275,9.93745175,56.1046316675,96.7652540475,1.4371088375,12.7950733275,12.897012525,11.84069335,-9.4864870835,-25.5113550025,-14.9699674975,-76.3587824975,0.028775
1,19.75,-32.7401090025,-2.296312378,0.59835112725,-0.0416404475,399.86081595,7.6506210765,1.01921681775,0.08303797775,10.01758541425,55.50337083,96.7571751275,1.3367861475,12.7695791425,12.72826585,11.405969975,-10.05215266775,-27.6314308325,-16.7030075025,-74.3701100025,0.02250930975
1,20.25,-28.3228404725,-1.5293625845,0.8345121585,-0.04842368,400.29624205,7.1068323335,1.09177364925,0.0817378175,9.59852419175,49.4963774975,96.787379405,1.30977351,12.7558291425,12.616869175,11.2197233225,-11.19750917,-29.4224083325,-18.0430800025,-73.4115,0.0252
1,20.75,-27.40969256,-3.447781943,0.38194269875,-0.05243607325,399.9424445,7.2576259195,1.0876806695,0.1032972935,9.64836667525,54.962726665,96.79570902,1.3237271675,12.7308266675,12.447505,10.903610025,-11.03737917,-30.0886958325,-19.20028083,-71.837785,0.025190235
1,21.25,-33.16562627,-0.866347568,0.822757075,-0.06365136775,399.8984648,7.07734591325,0.94089657125,0.093123036,9.576179917,53.7064966675,96.80379147,1.2570981375,12.70382,12.2720858325,10.5890933325,-10.356047165,-30.769705835,-19.4998991675,-70.1599566675,0.0265
1,21.75,-26.074524235,-1.1625937945,0.57828602375,-0.06025499625,400.91729155,7.01849089525,0.94683489675,0.08915267775,9.55257005,57.3724091675,96.8209006775,1.390014675,12.683195,12.1123617,10.3749966675,-10.9542000025,-31.1195166675,-20.0514299975,-70.881103335,0.02616386025
1,22.25,-32.79625428,-5.95367898,0.43019685775,-0.04526318425,400.5479357,7.14802457525,0.9239722905,0.08942648325,8.99089825,54.1840649975,96.8222864675,1.2078403225,12.66299,12.0169458,10.134236075,-11.9708025025,-32.706094165,-20.504141665,-71.802164165,0.02315
1,22.75,-31.503398825,-4.91274556075,0.1003623685,-0.042321144,400.77162925,7.0030255595,0.88738973275,0.1106685115,8.890971225,52.51185833,96.814743655,1.188410595,12.6534658575,11.94382,9.804166425,-12.6513325,-32.5110891675,-21.04023583,-72.2159174975,0.02715
1,23.25,-36.884564305,-6.47918301375,0.5237662125,-0.0469714295,401.0183503,7.01513492,0.91831100175,0.09618280375,9.22278960825,52.9706991675,96.80849331,1.3185374425,12.6455591425,11.8644425,9.57548599975,-12.4137125,-32.9743758325,-21.55399417,-72.8615099975,0.0211881265
1,23.75,-33.893261935,-2.7129110505,0.013613062,-0.03475433425,401.31104665,6.8651661265,0.746951493,0.09505913825,8.8418089165,52.2392424975,96.795648165,1.2419651875,12.619442525,11.72347585,9.31201375025,-12.8293075025,-33.24153583,-21.4624999975,-72.3684625025,0.0238
2,0.25,-32.2482106325,0.32364319575,-0.1166330475,-0.0384837895,400.711452625,2.79741994875,0.85732675825,0.093995919,9.91297294175,28.7541675,96.7684864725,2.603761405,13.7072183325,13.059441675,11.1461141925,-13.20546667,-35.4853558325,-20.690728335,-76.4935799975,0.026163885
2,0.75,-37.26457354,0.238999209,0.3008641225,-0.029574426,400.19826415,2.9321351855,0.83883995825,0.10077397525,9.90400008325,29.59591583,96.75479544,2.2443204,13.6622208325,12.9139633225,10.8388916425,-13.2779025025,-35.3518850025,-20.9342450025,-76.6030874975,0.0291336835
2,1.25,-41.2096407275,0.00079511,0.17459836925,-0.03568236475,401.0949557,2.780568672,0.8834835715,0.10082747425,9.81944166675,29.82365417,96.7494751975,2.220064415,13.6521525,12.7686100025,10.5440241675,-13.241008335,-35.59715667,-21.1651575,-76.9237791675,0.02715
2,1.75,-41.5335494,-1.70779518625,0.193988203,-0.02970513975,401.456635,2.686189364,0.81736980525,0.10568093275,9.62445149975,29.320095835,96.7320142375,2.152550785,13.6115250025,12.730278335,10.2491640825,-12.4388691675,-35.978849165,-21.6025475,-76.4648033325,0.03145113825
2,2.25,-37.6099678125,1.2771329795,-0.6052808,-0.03534409875,400.854690875,2.3476918445,0.7973482475,0.093801013,9.44680975025,28.7608100025,96.70806539,2.148908215,13.476038335,12.6234000025,10.04763891425,-12.61631,-36.24977583,-21.72086917,-76.189556665,0.02979343475
2,2.75,-44.278813775,-0.6284184855,0.0583730795,-0.0420579405,400.53921405,2.7840552255,0.784428993,0.100614145,9.35293575,30.03266833,96.6781173275,2.172932525,13.4588175,12.401740835,9.863953,-12.946723335,-36.1337875025,-21.922251665,-74.4684433325,0.025190225
2,3.25,-32.60257639,-2.70647763,0.433277797,-0.0429971665,400.7125163,2.32504832925,0.69982831925,0.0981185255,9.33927,29.6994683325,96.66347958,2.285891445,13.40354083,12.196455835,9.6698610835,-12.5286899975,-36.286411665,-22.04210917,-73.41833833,0.027809422
2,3.75,-37.856693445,-0.742735781,-0.05251699,-0.030823134,400.618198225,2.7063938565,0.7833968,0.0936660145,9.281474333,29.183269165,96.647087075,1.82824307,13.3001374975,12.0477075025,9.59222199975,-12.6400016675,-36.18078,-21.967598335,-73.1025558325,0.02877736175
2,4.25,-52.3747676575,-0.67506380775,-0.03555577325,-0.03842302775,400.889918875,2.7213963155,0.69553837875,0.0990519795,9.311835333,30.7853466675,96.6490744975,1.864123355,13.171738335,11.9088908275,9.517985833,-12.9171741675,-35.7826983325,-21.87910083,-74.3649399975,0.02347809675
2,4.75,-41.241323485,0.1068717895,-0.063985173,-0.0413920765,400.35269575,2.3030406385,0.782513883,0.09401137575,9.3472884165,29.1388841675,96.64925497,2.1728769,13.01715167,11.7129916725,9.3819454165,-12.7753158325,-35.509224165,-21.789735,-73.46978333,0.023475
2,5.25,-40.0491390175,-1.3717936345,-0.398262573,-0.04015267675,400.38674,2.528708039,0.87437291875,0.09715619725,9.22262375025,27.9356875,96.65802662,2.3094171325,12.96618083,11.6002816725,9.31729269175,-12.695101665,-35.56195583,-21.94957917,-73.3677258325,0.028125
2,5.75,-34.8558556425,1.77614946425,-0.2675026375,-0.04875241125,400.410862,2.5869814805,0.84761239975,0.1056496785,9.03559058325,29.0128299975,96.67534142,2.321094795,12.8074283325,11.4582624975,9.247014225,-12.3421566675,-35.97203667,-21.924155,-73.6988500025,0.03178221975
2,6.25,-40.96413368,-1.35684851,-0.1262309285,-0.03759142625,400.91497735,2.429079794,0.761115065,0.101440567,8.78252466675,28.981763335,96.6947594225,1.78187153,12.708690835,11.33611583,9.092011975,-12.20961417,-36.28576167,-22.0508325025,-71.9635808325,0.680999913
2,6.75,-41.924687485,0.8784862565,-0.266822091,-0.04964036225,400.1382822,3.630339878,0.896296529,0.10176603725,8.8734280835,27.9775158325,96.712536715,2.0002847575,12.683615,11.2540983075,8.98902867525,-12.36519167,-36.323681665,-21.889301665,-62.58109417,23.1980279975
2,7.25,-36.5837033025,9.7281191805,-0.64983552025,-0.038130149,399.1549483,4.1937115585,0.61289142575,0.11961908875,9.321157083,29.08509833,96.739981545,2.54420558,12.59465,11.172157525,8.89708367475,-11.0625661675,-34.929410835,-21.1044400025,-50.8908983325,69.9417183325
2,7.75,-31.4935077475,4.55134798725,-1.774391683,-0.0460633505,398.34653775,4.480105379,0.73589590175,0.0973016515,9.52196566675,31.8839024975,96.7627725675,2.1293189975,12.4580575025,11.096249975,8.89485975,-10.32379133,-32.1494491675,-20.0365875025,-43.3282308325,97.5846258325
2,8.25,-13.9493193275,15.64442263,-4.17717392275,-0.0530717855,399.68932615,4.601835,0.47756951125,0.10137764675,9.97645099975,31.64430833,96.8206548275,2.95659699,12.386733335,11.0358966425,8.91159775,-9.30198383325,-29.452766665,-18.79127417,28.88480008,237.061949975
2,8.75,15.264238955,31.16148172,-5.1076308,-0.0759949805,401.67490335,6.485398057,0.4900568605,0.1162131625,11.506118315,30.003958335,96.810263435,4.42635854,12.376526665,10.899853315,9.009999167,-7.8456968335,-25.94400833,-16.995198335,153.77912165,603.7792833
2,9.25,44.055898555,43.5227263125,-6.58932429875,-0.09382270125,400.61950265,6.822123866,0.6336609395,0.14680293475,12.4504983225,26.98321333,96.815919275,5.99316826,12.3461766675,10.9403416425,9.34159724975,-5.84921591675,-16.260258835,-12.6804740825,276.8916167,900.3091333
2,9.75,71.04777214,56.717164745,-7.27461066725,-0.1164767455,399.13591815,7.069341022,0.7638417785,0.136832333,14.2925733225,26.51991083,96.8074002575,6.5379505075,12.2988125,10.9380458075,9.93527958325,-4.3284379165,7.153229662,-6.55530233325,321.248366675,972.359249975
2,10.25,76.33069016,65.63898981,-7.30108376925,-0.14416349825,398.84099185,6.2349043845,0.971140372,0.142441999,14.83490917,22.4064616675,96.7991212275,8.06258753,12.2555524975,10.9797233325,10.70541917,-2.84653449975,26.17186417,1.7514646415,413.826300025,1187.2802915
2,10.75,92.002941035,84.5528514425,-6.757508867,-0.13571978725,398.535337875,6.854152486,1.052175998,0.1937548415,14.9555066675,18.61585167,96.7877071625,6.970159135,12.2116675025,11.045278335,11.7431266675,-1.60412380025,44.8513050025,11.4197282525,434.70536665,1244.22695025
2,11.25,102.8258009,84.39569512,-6.949963913,-0.165857372,397.83395555,6.3165483215,1.44221404975,0.22016006625,14.4319199975,18.374468335,96.7715901775,6.618038965,12.1212566675,11.14993,12.6179850025,-0.233356696,59.077093335,22.27987917,455.418179975,1343.9288165
2,11.75,99.751161445,78.9563872,-6.851611084,-0.182616932,397.042676825,6.674397911,1.422462606,0.230969682,15.1006166725,18.483355,96.744575115,6.9876030775,12.1104925025,11.3250633325,13.3906299975,0.920902517,70.433864165,33.5664874975,459.51348335,1366.7842
2,12.25,117.35853555,64.41845026,-6.8680672215,-0.1956917755,397.332426375,5.581655568,1.771068212,0.29222859625,15.51674,19.0921325,96.6947427175,6.963090545,12.181595,11.62500333,14.7009024975,2.278494333,76.5542149975,45.803818335,452.2528167,1389.718558
2,12.75,121.4013696,71.54240861,-6.79477444275,-0.2320931135,396.60146885,6.427413894,1.983985244,0.30321988575,15.261936665,22.58654,96.66504573,7.1038641,12.2962449975,12.059300835,16.16653,4.09802124975,79.5399833325,53.47266833,429.303999975,1341.172275
2,13.25,112.309379225,55.11727686,-6.531889512,-0.212233353,396.3856493,5.2700859905,2.228831989,0.3171173095,15.08624833,22.52124167,96.6469759925,6.99085883,12.380066665,12.5879866675,17.6079166675,7.08976033325,79.35436417,58.43342333,350.412325,1196.34550025
2,13.75,102.98093755,61.10640929,-6.322689481,-0.209033091,396.11317115,5.3313840825,2.3125867255,0.32688654625,15.115603335,22.8290191675,96.6270457725,6.9027256825,12.5771475025,13.06208083,18.756809165,12.3766158325,76.36584833,59.01938417,328.4496917,1119.129933
2,14.25,107.36165705,56.47198978,-6.139293714,-0.232033828,395.525174875,5.4149928405,2.33677100175,0.3236063735,15.0219049975,22.1850050025,96.6089528025,7.28644252,12.791669165,13.4561083325,19.55416833,16.748995,71.6342108325,60.3113849975,267.6467125,958.266275
2,14.75,89.857938265,48.797133425,-5.815095307,-0.211875783,395.9090643,4.85498885025,2.23884049,0.2997391135,14.8866524975,21.8116899975,96.6218218975,6.185882935,12.98527,13.981879165,19.641941665,17.467439165,65.2253758325,56.7350699975,225.7570108,832.368291675
2,15.25,59.514640085,45.703125365,-5.33961049525,-0.19290625825,396.4147296,4.8471850905,2.25741451075,0.26236058525,14.8421549975,22.24363667,96.6277933575,6.6298426775,13.2824333225,14.354305,19.62416335,17.66344917,53.542618335,45.4042766675,174.703412525,708.4107
2,15.75,40.4196589,39.7619572425,-4.13949043025,-0.18469443,396.8631824,5.8197504175,2.0187822315,0.25948619475,14.9597308325,24.8518016675,96.6273633575,6.00679261,13.5106950025,14.5426408325,19.186666665,17.01344333,39.8710899975,30.07758333,89.354808335,455.442775
2,16.25,15.396648855,23.1226879375,-3.33655934175,-0.146715093,398.013591575,6.26668802675,2.073810606,0.234980081,14.6936374975,27.218256665,96.63116467,5.56980054,13.7802775025,14.8162524975,18.56479667,15.505421665,27.2129408325,17.860944165,23.34319192,327.952711675
2,16.75,-3.818431736,18.3442060125,-2.110227701,-0.14414783375,398.282228575,6.03263477,1.7722382055,0.20001785025,14.2272875,28.1279850025,96.6505198425,4.92581577,14.0249975025,15.05757,17.7763900025,14.331508335,17.983413335,9.97081708325,-29.793997515,184.3302117
2,17.25,-18.536181315,5.497362333,-0.709276997,-0.075113484,397.3841258,6.070722072,1.24395912325,0.13645827,13.178105,29.277906665,96.664081645,4.166095315,14.0947941725,15.2659767,16.8995041675,8.31826466675,4.5937127585,2.6528394855,-77.3662074975,40.353812585
2,17.75,-38.631578125,-1.2794634825,0.835215277,-0.039333956,397.7589895,3.33002830825,1.22708870525,0.108640598,11.825215025,27.6202449975,96.651323285,3.036891335,14.2102791775,15.3218725025,15.9422183325,0.75808427225,-7.79952758325,-3.02514993325,-88.58829833,1.50005439
2,18.25,-39.131147155,-2.05138818225,0.89504612925,-0.0437222905,398.86995855,3.0715996805,1.18502522525,0.101519179,11.26648167,29.4053091675,96.6797836,2.4125301425,14.2611791775,15.1708325025,15.0822958275,-5.740848583,-17.4980200025,-7.53972125025,-86.971039165,0.051309545
2,18.75,-37.29857665,-4.00841663775,0.84886618475,-0.0351009935,399.150687325,2.91672903925,1.06137692025,0.09149836775,11.2377708275,28.05811,96.7121686375,2.33117607,14.3136116775,15.0036125,14.4238191675,-7.84815700025,-23.78171167,-11.3542149975,-84.9749225025,0.0411
2,19.25,-46.32867696,-2.05728365575,0.54495705925,-0.0392527325,399.58388355,2.90999013975,1.03595379,0.09265835275,11.3784774975,27.296895,96.731710165,1.9509394625,14.3211891675,14.839027525,14.0264649975,-9.75425674975,-26.9449274975,-14.170345835,-84.4583875,0.03277983525
2,19.75,-38.26832791,-0.514848938,0.93876848775,-0.040134079,399.5428743,2.9640702395,1.0997180155,0.09462572875,11.28195083,29.234088335,96.7675010475,1.90993495,14.326049165,14.68243,13.4909000025,-10.5338481675,-29.63399083,-15.2005175025,-83.548113335,0.032775
2,20.25,-44.0335548875,1.484475723,0.670275953,-0.0453626365,399.297211725,2.85688323275,1.26141157375,0.096444046,10.84962167,30.0079575,96.7823501025,2.174422015,14.3250733325,14.5042991725,13.0922250025,-11.024450835,-31.486456665,-16.9592491675,-82.15644167,0.0318
2,20.75,-43.83272171,0.04219980275,0.700621006,-0.0379655265,399.411589125,2.17776267675,1.02584490375,0.0923291135,10.43760083,28.03304,96.785768695,2.1694502675,14.324238335,14.330628325,12.642219975,-12.2614433325,-33.43902417,-17.888411665,-81.43506333,0.031475
2,21.25,-42.7489116825,-5.081772167,1.0221051825,-0.03661256075,400.13893485,2.21769358475,1.12293163875,0.103216556,10.59547917,27.177651665,96.7935741525,2.0493132625,14.295280835,14.09673665,12.4781275025,-12.303449165,-34.92200583,-18.390009165,-80.116310835,0.034423025
2,21.75,-33.6280177125,-1.75092970275,0.934063672,-0.02973886125,399.88730295,2.28890722775,1.2514640025,0.092774938,10.66295,28.78665167,96.8003464075,2.04704599,14.23881333,13.9069416675,12.1427050025,-12.6329241675,-35.7037466675,-18.88829167,-78.7825716675,0.0331
2,22.25,-50.8878339525,-2.34075737225,0.281301018,-0.0477544655,399.763562175,1.85292528275,1.0162409875,0.08326244225,10.6587483275,27.8031899975,96.79479563,2.2541412775,14.210694165,13.7919466675,11.7962466675,-12.7166733325,-36.226141665,-19.4267166675,-78.30549333,0.032775
2,22.75,-36.3540304775,-4.820075749,0.46165395425,-0.03952913675,400.224804375,2.54313586975,1.02579917275,0.0893828685,10.5477645775,28.483806665,96.79245474,1.9519924175,14.139724165,13.7284708325,11.58610083,-12.9239025025,-36.63886417,-19.9278775025,-78.300325835,0.028775
2,23.25,-38.6108583725,-0.105077363,0.192482139,-0.0350639745,400.6152708,2.13102102275,0.903000515,0.09885162175,10.39956683575,28.2404425,96.7738883775,2.1446707075,14.026674165,13.57243333,11.503406665,-13.58561333,-36.4286733325,-20.2126166675,-78.0268899975,0.0291
2,23.75,-34.2758684675,-7.893349972,-0.04938847275,-0.03911018875,400.72185805,2.6296553525,0.77050554125,0.098463048,10.4321474975,27.3153508325,96.77721488,2.036160165,13.992633335,13.41416417,11.31971833,-13.25559667,-36.783091665,-20.5621150025,-77.39078667,0.02913367675
3,0.25,-32.8917111775,1.0927491375,0.968667279,-0.0508617195,401.32922105,0.001630137,0.854160113,0.1036266265,10.8251866925,43.3235149975,96.68667726,5.56771484,17.6072150025,16.741457475,14.4119491775,-16.3289300025,-41.5383866675,-22.1280749975,-75.3005233325,0.027475
3,0.75,-31.956949205,-3.9313920715,0.167939774,-0.0381765175,401.38042705,0.000871047,0.70771609275,0.0985597175,10.55737333,38.0393858325,96.67001843,5.84957374,17.4813216675,16.5227741925,14.1553524975,-16.15875833,-41.2546575025,-22.2551208325,-75.2175350025,0.02845
3,1.25,-26.148508855,-1.714056958,0.478347364,-0.02687872975,401.12930205,0.0021231715,0.62179514125,0.08453624525,10.42924975,39.07233667,96.6561161725,6.8053013675,17.3011783325,16.3080566425,13.942084175,-16.5506074975,-41.5585183325,-22.6400374975,-74.52541333,0.0291
3,1.75,-28.9408954225,-1.133863982,0.06307053175,-0.03213267175,401.0313069,0.001891824,0.78595620925,0.08365588225,10.3170166675,42.343039165,96.63760741,7.2466674275,17.270910825,16.131945,13.633679975,-16.61085417,-41.8253908325,-22.9962641675,-75.24943417,0.0358
3,2.25,-30.46836887,1.286337873,0.1854185965,-0.03198251825,401.267161,0.0017220635,0.880282167,0.0894788925,10.183353475,40.79379,96.6290545425,7.8559752725,17.2317441425,15.9449975025,13.422225025,-16.65942833,-42.51850417,-23.0929925,-75.24236083,0.029825
3,2.75,-32.15546138,-0.185168392,0.383636458,-0.035443798,401.0817916,0.0015738505,0.86738197175,0.09117369625,9.96109774975,38.30751083,96.6076820275,6.315671355,17.1211791925,15.7677108225,13.1628483,-16.7089641675,-42.2909225025,-23.00876333,-74.228585,0.0291
3,3.25,-32.75313597,-1.161839459,0.1589217515,-0.028195965,401.056976,0.001410661,0.7032883675,0.09625220475,10.2492277475,36.99989,96.599163355,7.63779508,16.9698541425,15.6711058225,12.9202742,-16.8243916675,-41.86410333,-23.0313675,-74.45225417,0.02877735325
3,3.75,-30.98947819,0.5049022995,0.005210963,-0.0302618645,400.837851725,0.001465845,0.740952839,0.093509184,9.90414285,37.0095349975,96.5914925725,6.3098946925,16.8600691675,15.4953475,12.719095025,-16.836798335,-41.37880083,-22.8870533325,-73.8112249975,0.0278
3,4.25,-34.1192595125,2.15178975075,0.423176993,-0.0299906695,400.65975505,0.0013879475,0.795923382,0.096189595,9.036910167,36.19367167,96.61031868,5.670967675,16.7415941675,15.418535025,12.5809033,-16.9277575,-41.219771665,-22.99721417,-74.94348583,0.0318
3,4.75,-39.76819905,0.58792245475,0.37822634,-0.03595539825,401.417817475,0.00194333,0.805327727,0.09332412175,9.41418055825,37.5138075025,96.6186328675,4.48458599,16.653054975,15.326665025,12.353611675,-16.81952417,-41.48897333,-23.2877533325,-74.5101824975,0.0278
3,5.25,-40.238823195,0.3074667785,0.258525986,-0.0388455235,400.657909,0.002481971,0.70830926025,0.09567517575,9.179844975,37.0426525025,96.630582945,6.8845481,16.5887525,15.153335,12.0777808,-16.389379165,-41.4463008325,-23.499031665,-74.5996491675,0.038077625
3,5.75,-31.4768354575,-0.545774239,-0.2335720865,-0.02851422975,400.6548004,0.2161859045,0.8191740595,0.089654029,9.52875125,35.99882417,96.6277233825,7.0491013825,16.45951,15.0318041925,11.874927475,-16.498166665,-41.4296058325,-23.8022675025,-72.529053335,0.971343752
3,6.25,-33.391872385,1.077942718,-0.86460390525,-0.03598949825,400.225532475,2.034287591,0.781887197,0.0922660625,9.375399075,37.012513335,96.64551251,6.594063895,16.3109091925,14.875070825,11.6172875,-15.947065,-41.531251665,-23.61754083,-61.2725325,25.3741295
3,6.75,-27.5437087425,1.53938882675,-0.961621138,-0.04470938025,399.06865685,3.846836625,0.75177232,0.09838732325,9.76192464175,37.238171665,96.6803782775,5.06519408,16.254792475,14.72604165,11.550206675,-14.492940835,-39.29103583,-22.98533417,-48.554781665,75.25168083
3,7.25,-15.1421001075,6.00795769375,-3.02286167975,-0.05008227,399.82744475,4.92074798925,0.55134328525,0.09100864575,10.736380825,38.8360583325,96.730411255,4.34532852,16.151179975,14.66590665,11.5692383325,-13.0119191675,-36.6176816675,-21.818598335,-31.5889922525,129.6132108
3,7.75,9.6818568255,20.6975682575,-6.056571196,-0.05765331125,401.07348575,2.2458824285,0.5284958295,0.10333919525,11.849045025,40.70874,96.7631970875,8.5750051025,15.9598649975,14.622157525,11.6007008325,-10.75590125,-33.7669491675,-20.3682283325,89.7058972475,417.952016675
3,8.25,39.8077183575,26.50374271,-7.38775205525,-0.08573340425,400.891126925,2.218929486,0.51081582825,0.125619155,12.8708650025,39.5721700025,96.7678724575,12.05153004,15.9336158275,14.537495,11.8354825,-8.31108175025,-28.7846633325,-17.75089417,207.384725025,743.48458335
3,8.75,61.695935865,41.26682922,-7.820418575,-0.092704549,399.4659194,2.082945287,0.6374574315,0.121349375,13.903763315,38.749563335,96.773810345,12.06900364,15.838475,14.338051665,12.57180165,-6.8329951665,-20.048373335,-14.2751,282.46756335,945.9857
3,9.25,72.6198144275,52.2393677125,-7.90123584575,-0.10906463125,398.9622018,2.37789124025,0.7814913815,0.1470120635,14.629363335,33.89691,96.76753749,13.30705093,15.734448335,14.299726665,13.226805,-5.3422711665,-5.37591406,-9.5744663335,393.9666,1150.1454715
3,9.75,99.8877435475,73.25900236,-8.812313922,-0.125862884,398.54677475,2.322699672,0.865079445,0.176970502,15.133748335,29.93648417,96.7742259275,14.57350966,15.6975633275,14.4039633325,13.9879225,-4.05524624975,19.94205667,-4.416453666,445.255098325,1354.802167
3,10.25,110.105221375,70.61652318,-8.941030893,-0.14371741,397.260814425,2.2650849535,0.93953057475,0.20332697775,15.4941941725,28.1990925025,96.7681194525,14.69513989,15.7020766925,14.54235833,14.9093791675,-3.046784583,42.37620667,1.09985095075,459.571383325,1380.5791085
3,10.75,125.79542035,68.53810364,-8.288043701,-0.1424897015,396.683416225,2.425291312,1.3578233325,0.2165282955,15.79146,26.52778917,96.760999275,14.949186215,15.70318417,14.663475,16.0643083075,-1.878474167,57.6667158325,6.88987274975,496.2001167,1469.383075
3,11.25,136.379832775,79.7540412225,-9.343033186,-0.1959827265,396.02537645,2.9143500315,1.691335128,0.26161125025,16.1068941775,25.4318774975,96.72637169,14.9279166325,15.706035835,14.7916008225,17.503328325,-0.0216925,73.8884641675,14.1779343325,490.4863108,1516.02810025
3,11.75,150.024967225,81.9211998175,-8.89549389875,-0.209109866,396.02898235,2.8069666425,1.9755978295,0.31442536475,15.8912575025,29.1021075025,96.685950045,14.259681755,15.7496483325,15.0752766775,18.91465917,2.45214083325,80.1548899975,23.463665,508.96289335,1477.19433325
3,12.25,164.901232325,69.5435072025,-8.938398833,-0.222622833,395.632139375,2.82488949275,2.511618247,0.334269369,16.34538,33.36691083,96.645629225,15.43034307,15.82681,15.5095766725,20.9750658,4.64491433325,80.6181783325,33.5967475,491.26319165,1511.53828325
3,12.75,163.191310175,66.33131577,-8.8150589095,-0.225715978,395.574413675,2.98452650775,2.722673351,0.34490988,16.471437475,32.9867441675,96.63057864,14.8823781625,15.878486675,15.938815025,22.338333325,5.92492758325,86.6569350025,43.02924,487.683499975,1549.318367
3,13.25,155.138297875,66.6934752725,-8.7921656475,-0.2175469545,396.372222025,2.829357492,2.64218882825,0.35620795475,16.5618358,35.27123333,96.6155000375,14.8959310375,15.9894458275,16.614102475,23.105762525,7.9235005835,92.5699700025,54.73247167,438.1021958,1472.92241675
3,13.75,161.1403923,68.26315926,-8.8482857715,-0.246358495,397.12335165,2.8109647795,2.842462983,0.3700157155,16.669635,35.49034,96.602369935,14.673016335,16.2380599975,17.4168033325,23.53549085,13.09953,90.994641665,57.95035167,414.303125,1448.87716675
3,14.25,155.0067709,73.718509605,-8.2772739495,-0.2257192065,396.7258393,2.926686694,2.950200319,0.3668759365,16.572602475,38.68855167,96.5800536575,14.258013205,16.5329141675,18.1738908075,23.8465925,19.6190783325,84.6848241675,60.748403335,400.8148083,1326.1825335
3,14.75,136.315589475,57.2798241075,-8.1945000575,-0.240940265,396.536851675,2.677902736,2.9048646635,0.35023650175,16.58821165,36.4799016675,96.57040096,15.88091488,16.82242833,18.7088225,23.5694425,22.91064667,79.7463600025,56.38262667,305.2412138,1120.25156675
3,15.25,110.5065678,57.3841174475,-6.9484061395,-0.214570398,396.279991575,2.736155651,2.885360907,0.336269422,16.5150808325,40.694799165,96.5596714975,13.1850678625,17.1552733325,19.0954900025,22.80597583,24.704161665,64.8375166675,55.191668335,240.210610825,963.076558325
3,15.75,95.9439934625,47.9038247375,-6.450402311,-0.2009441055,396.50825905,2.896414846,2.598839107,0.32041536075,15.794292525,37.857279165,96.573539385,12.748756585,17.41076333,19.4558308575,22.083476675,22.94558833,51.64811667,49.389175,150.358539825,749.421566675
3,16.25,54.5430732,36.915941165,-5.82460139625,-0.1795521295,396.21933635,3.512746947,2.2876886135,0.302073889,15.15102915,42.3379583325,96.5853106275,10.827809095,17.671042525,19.522649165,21.536942525,20.272211665,36.9322225025,36.8585308325,84.3590705825,541.403799975
3,16.75,41.0203822075,23.96499161,-4.1979211355,-0.1308459655,396.4888664,3.656165453,2.024887306,0.242707486,14.7566775,42.1351333325,96.5883205075,9.27478785,17.8790958075,19.5420800025,20.9679125,15.774853335,22.7736216675,24.1387649975,23.962037605,361.1703917
3,17.25,9.8428550905,12.58463347,-2.2474190685,-0.0931455735,396.27603965,8.194449252,1.55351916825,0.181271211,13.9943133325,48.731526665,96.5933136175,4.54756122,17.966045025,19.551113325,20.3848608,11.28407692,8.0314780835,11.6577618325,-41.573897835,150.18291585
3,17.75,-14.6686152275,1.811909313,-0.4783694015,-0.0576939415,396.0519855,3.892980909,1.115559071,0.1148282945,13.023688325,47.759773335,96.60427839,7.6272860475,18.093541675,19.524309175,19.6976375,5.2925408585,-6.149791142,2.845939158,-83.1680591675,25.876024
3,18.25,-26.7565132525,1.013865102,1.272193281,-0.05093876775,397.18772115,0.14008214725,0.95052533975,0.10430927175,12.5473049975,46.01645,96.6268282025,7.2110869325,18.235970025,19.4644466725,18.9788891675,-2.008157031,-18.8384949975,-4.343584192,-89.9628175,0.5498984085
3,18.75,-28.7765181275,0.506713436,1.43576796475,-0.0317845255,397.688568475,0.001909826,0.94734121725,0.100733223,12.025084175,50.6469749975,96.644767995,6.150638875,18.34194915,19.2602691775,18.2334716925,-8.005687917,-26.4855050025,-9.14868508325,-85.9103725,0.0477
3,19.25,-26.2504473725,-1.671464024,1.272694133,-0.032123866,398.31396065,0.0013739265,0.854276188,0.091772502,11.7540524975,51.8228483325,96.6652585,5.912714045,18.365412475,19.0938908225,17.571945025,-11.55822417,-32.143371665,-13.6333250025,-82.8352424975,0.038075
3,19.75,-25.6683577275,0.9011407215,1.076919849,-0.024947092,399.0000921,0.0020389085,0.95019634475,0.08520387275,11.440704165,49.68313083,96.6873147225,5.2896017225,18.382643325,18.885831675,17.1270833,-13.601984165,-35.849128335,-16.4041725025,-81.7815474975,0.0371
3,20.25,-29.48971891,1.381007364,1.3605725045,-0.02187791825,398.976931275,0.001969555,1.02640486025,0.076520755,11.3354074975,55.2399475,96.70160967,5.164412565,18.3813883,18.6955541725,16.6651341775,-14.8416775025,-37.5988575025,-18.0976366675,-81.01842833,0.03375
3,20.75,-27.0901060875,-0.295948414,1.48108160425,-0.0260614595,399.0047312,0.002017574,1.181175492,0.0872464145,11.435832525,49.154814165,96.7178894375,5.087879165,18.3301416675,18.4927849975,16.2021524975,-15.665719165,-39.35342917,-19.15506917,-79.224751665,0.0331
3,21.25,-30.993468495,0.28419171375,1.166089695,-0.0304555395,399.0017953,0.001582913,0.89300709025,0.09091764125,11.016675835,48.29130833,96.7245100425,4.691250875,18.2461875,18.2197217,15.7738841775,-15.894190835,-40.3583525,-19.95710333,-79.364239165,0.0291
3,21.75,-30.7230996,-2.33211330375,0.952998493,-0.03379166325,398.739240625,0.00286151625,0.911957265,0.09474046325,10.756317525,46.692899165,96.7147612625,5.355775815,18.1533999975,17.979304975,15.3965883275,-15.4344550025,-40.86858417,-20.870629165,-79.22738667,0.0318
3,22.25,-25.39284127,-5.28770029675,1.006359213,-0.03094751575,399.815990075,0.0014789905,0.93637770675,0.08934575725,10.9855250025,45.7929091675,96.7202519025,5.7122209475,18.0097250025,17.80805165,15.0539600025,-15.219539165,-41.443783335,-21.56084083,-77.8063400025,0.02582303325
3,22.75,-25.383582405,-1.159521853,0.53632351,-0.03341686025,400.150417425,0.002121359,0.871636267,0.09415109275,10.8087583225,44.6531024975,96.717648505,5.226233925,17.9642341775,17.5723625,14.897985,-15.101703335,-41.4353900025,-21.2099258325,-77.0912050025,0.034075
3,23.25,-22.7686372575,-3.436374358,0.36171691,-0.04252843025,399.851875575,0.00196079725,0.752013311,0.096576429,10.335025825,45.7005275,96.712687365,3.78026909,17.91145833,17.3524308,14.755905,-14.9888925,-41.82769333,-21.771940835,-76.910935,0.028775
3,23.75,-22.07092974,-3.94384139325,-0.301238456,-0.03614208975,399.6338367,0.001540261,0.79138814925,0.098686253,10.7159058075,46.127944165,96.6970307475,4.9890095575,17.7783275,17.1726375,14.5990949975,-16.24845917,-42.3252825025,-22.10121167,-74.28206833,0.034075
4,0.25,-24.430949285,-3.13246640225,0.1306978845,-0.0373841135,400.8807554,0.002030526,0.80823445025,0.09384174825,11.2987499975,53.473991665,96.476412425,3.7692732425,20.8376375,20.3170866675,17.659231675,-17.26820333,-44.437715835,-22.33645083,-77.766884165,0.03740263025
4,0.75,-26.4010048325,-2.8630571905,0.8284938415,-0.0442384085,402.1462605,0.0034477405,0.886450607,0.0951631625,11.3319633325,48.46119,96.4584184675,4.2366674875,20.7076350025,20.0570825,17.2870833225,-17.004844165,-44.5105933325,-22.579588335,-77.450266665,0.0344
4,1.25,-31.7213671925,-1.2681869885,0.8512564245,-0.036063346,400.9165668,0.001827987,0.943370103,0.0868788105,11.4057024975,47.538179165,96.4445349625,4.02321622,20.59513167,19.8098633075,17.022980825,-17.0554875025,-44.51712833,-22.8520325,-77.0353099975,0.03578874175
4,1.75,-24.713303225,-1.60178629975,-0.192137552,-0.034635852,401.2893524,0.00103226625,0.90527890375,0.097066278,11.5014625,47.1323399975,96.4404096075,4.4596337475,20.404585,19.5637475,16.6990975025,-17.1364566675,-44.1387949975,-23.162095,-76.972098335,0.03146165525
4,2.25,-25.475740725,-1.92625251625,0.1502653535,-0.03482210975,402.67053055,0.0033389355,0.77430488575,0.08745024675,10.9449358325,45.16863333,96.42250143,3.488407985,20.2876325025,19.34972165,16.3542358225,-17.1887849975,-44.06199583,-23.44004667,-76.09025917,0.03374555175
4,2.75,-26.6793616775,-0.377927454,0.65932196525,-0.032152036,402.12971315,0.0017066485,0.75411941325,0.09824639775,10.86779083,46.116411665,96.4023520125,3.47606886,20.242500835,19.1970825,16.0508983325,-17.082716665,-44.1044125025,-23.563698335,-76.1010541675,0.0317822
4,3.25,-27.9927768725,0.2654178615,-0.2421126825,-0.0361390295,403.0377998,0.0020086635,0.68934415175,0.09167498925,10.6777716675,47.062060835,96.39850036,2.51107414,20.0294433325,19.022224165,15.9179141725,-16.994275835,-44.29946833,-23.78115417,-75.57455833,0.027475
4,3.75,-24.0414244525,-0.93628863925,0.102771672,-0.036979324,403.5516935,0.001636507,0.7749222915,0.0888297225,10.403388325,43.9298975,96.395794785,2.60136558,19.9041608325,18.84118333,15.6828608275,-16.8856233325,-44.33071417,-23.9757625,-75.12842417,0.0291
4,4.25,-21.78835959,-1.66973273125,0.30573571325,-0.0275828935,401.701252425,0.001835411,0.81511565775,0.0897954855,9.91347055825,44.622955835,96.404229555,3.08890228,19.799443335,18.7007583325,15.4558358275,-16.8026525,-44.834231665,-24.11069083,-74.7199433325,0.028775
4,4.75,-21.1597547,-0.062949658,0.303199694,-0.027148008,402.5521837,0.017664811,0.72210340125,0.08849425625,9.963306333,43.13451333,96.400566165,3.19349464,19.643055,18.5663866675,15.2133325,-16.79494083,-44.3832300025,-24.102366665,-73.3542991675,0.0463
4,5.25,-25.83819048,0.948550979,0.43753112075,-0.026579947,402.286567825,0.44466931325,0.71208302575,0.092021871,9.8107283,44.3690766675,96.41655034,3.2300323375,19.4976325025,18.4405575025,14.9708383275,-16.58575167,-44.1860608325,-23.985570835,-69.73276083,2.36512633
4,5.75,-25.3936791475,0.98806791425,-0.3369864935,-0.02564954225,402.579833325,2.80771736925,0.6509542995,0.0904585565,10.094577025,42.3765366675,96.4449803375,3.1626585875,19.456801675,18.32569,14.766878325,-16.0969925025,-43.76585083,-23.764684165,-57.64513083,35.6887745025
4,6.25,-19.62252898,5.018725236,-1.335791989,-0.03376217725,401.572171525,4.645696166,0.46976565325,0.0964351965,10.6807991925,41.9481883325,96.4695471175,3.1649104375,19.323056675,18.14465417,14.6179075,-15.0413949975,-42.2112400025,-23.19748667,-36.0149000025,100.3274866925
4,6.75,0.62908349125,11.19879763,-4.4070496945,-0.0341818745,402.379049,4.38046132775,0.387558731,0.09631847375,11.17673335,42.7884066675,96.4893020375,4.63881575,19.2154183325,17.9822266675,14.5802808225,-13.53181167,-39.307833335,-22.4704391675,28.3840888225,246.79021
4,7.25,34.794380585,24.579444925,-6.71000031825,-0.05962658575,403.519534275,2.7598546295,0.4616219435,0.12216816725,12.445103325,42.804928335,96.510056025,7.0483537825,19.0988816725,17.827778335,14.6619441725,-11.25673417,-34.74439667,-20.6291349975,164.617638325,563.673374975
4,7.75,45.378897095,33.3086284775,-7.4567120925,-0.07674849775,403.32191745,2.989010954,0.5265379255,0.1286481905,13.3377108275,40.6419424975,96.527719995,8.622711855,19.0630525,17.7037525,14.9170158075,-9.197860333,-29.4064683325,-18.0080049975,241.56704835,779.7226083
4,8.25,69.217036635,46.7140434,-8.08070956,-0.09246906475,401.617044575,3.28599331625,0.60776634,0.155395278,14.1347883225,32.135014165,96.544013755,12.026984455,19.0206991425,17.5586083275,15.3327050025,-7.47205475025,-23.5553824975,-14.6348150025,333.191408325,995.645683325
4,8.75,101.08416925,59.3482493,-8.66465735925,-0.117781984,401.1134912,3.29261633975,0.768751765,0.191054029,14.95943335,25.82921333,96.54547176,12.40578924,18.88138833,17.45472,15.80237,-5.658577667,-16.184830835,-11.74228,398.0012833,1213.323633
4,9.25,128.102588525,69.069350845,-8.410700342,-0.1322646985,400.0789751,3.5151852985,0.8065356865,0.207128705,15.6563600025,22.5962924975,96.5717925125,13.27867775,18.8684691675,17.4348616675,16.5439599975,-3.8531305835,-3.15211085,-7.930318167,441.16334,1305.6266
4,9.75,154.90514745,75.71654866,-8.7428287215,-0.16309539625,399.390631025,3.39461155525,1.08528737375,0.23538177125,16.5355775025,24.0081333325,96.5732729475,14.390680295,18.8119416675,17.4918033575,17.427080025,-3.0484525835,16.70880008,-3.9282641665,542.632691675,1528.9131915
4,10.25,173.971711225,71.80865866,-9.15921533075,-0.1994219665,398.6893752,3.017996395,1.52077793,0.288601366,16.8847216675,24.9393791675,96.5459198925,15.4115200175,18.797775,17.620554175,18.2654924975,-2.010702667,41.629631665,-0.0596932985,564.074858325,1536.8268905
4,10.75,181.20297485,73.03843628,-10.10857074,-0.23687095575,398.20592995,3.036006941,2.1555008205,0.348228968,17.645505,24.31549333,96.535838505,15.21793728,18.8297183325,17.771527525,19.506385,-0.81793615675,62.159458335,3.94275925,602.25658335,1696.0452165
4,11.25,205.12317655,80.764251955,-9.998840246,-0.251871941,398.74797715,2.808984221,2.591807404,0.361455688,18.164706675,25.8049499975,96.529721415,16.50641322,18.8552825,17.9868074975,21.850485835,0.89698450025,78.25545,8.0314430835,608.80486665,1774.4876665
4,11.75,208.150457,64.341996595,-8.850750575,-0.29103964475,397.9101275,2.894829524,2.790406171,0.3722170605,18.533315015,30.21488667,96.505585615,16.55686252,18.89722165,18.351669985,24.670416685,3.732974167,90.722811665,12.544827335,583.29523335,1762.0165
4,12.25,226.797254,73.4156152875,-9.284196626,-0.30305378575,396.868224975,3.415322273,2.9140916855,0.387201782,18.7211358,28.2286233325,96.49963851,15.67833603,19.0490225,18.9124249975,27.581875,8.18224699975,97.0239825,20.9003308325,579.77910835,1815.7705835
4,12.75,219.419129775,63.57768288,-9.810222724,-0.2998452535,396.9264043,3.406914088,2.9741208845,0.39317401725,18.665710825,27.292073335,96.483396645,15.57041837,19.225971665,19.6756966675,29.657500025,14.2618199975,98.4822224975,34.5913141675,568.6266333,1771.3178335
4,13.25,236.27935505,70.2001636,-8.7840617835,-0.286692434,397.04486965,3.579641181,3.021207509,0.423114048,18.8405558075,29.7263925025,96.47990983,15.18851119,19.46152,20.4673599975,30.789374175,19.9649266675,97.79024417,46.170801665,528.679499975,1714.88666675
4,13.75,229.041038675,65.90299855,-9.1726565995,-0.28215757225,397.735599775,3.47345875725,3.07876995975,0.3708439655,18.7495766425,29.409883335,96.448634125,15.608938855,19.73333833,21.1619466675,30.7933333275,26.294200835,94.89626167,58.62703,486.530275025,1621.88125025
4,14.25,217.9312479,55.944740885,-8.29793515,-0.29251627775,397.44118925,3.63986513125,3.064513237,0.39163870775,18.61307,31.923708335,96.422162985,16.6924356425,20.095694165,21.680135,31.1672891725,30.298155,92.3037891675,66.71647,425.89165,1492.3336665
4,14.75,185.211620525,39.05753881,-7.8355490035,-0.273203632,397.4378337,3.49733461,2.957037559,0.3745120805,18.1703091925,33.702829165,96.39568507,15.66843305,20.3869425,22.43368583,31.0160433275,31.82966,84.836176665,68.526543335,360.71547985,1336.626
4,15.25,170.63738195,46.0338565925,-7.671722972,-0.260391031,397.2011986,3.593494596,2.83461484575,0.35596044,17.9592692,32.46800167,96.39126784,15.30568702,20.6477741725,22.7284716725,30.072708335,31.4542633325,75.6887066675,66.817998335,284.82555,1161.191633
4,15.75,134.084287025,34.04389601,-6.4772162185,-0.23702187025,397.542986975,3.472986941,2.638405947,0.3371294765,17.7105999975,32.54210667,96.3932759175,14.76866898,20.9227725,23.0892333325,29.5470833075,29.5749950025,61.3353400025,61.872523335,212.516650025,926.969024975
4,16.25,101.8881253,33.26719514,-5.79459764925,-0.2071044365,397.399602275,3.256705273,2.22031169225,0.28314384225,17.1689000025,34.4722300025,96.4063234425,13.89982447,21.1875033325,23.37403083,28.4233325,26.621531665,47.08377417,55.9767149975,129.529561675,711.68451665
4,16.75,72.7916097425,24.396723005,-5.0523340325,-0.16824796425,396.974477175,3.256908235,1.99152748175,0.2715075925,16.8254083575,35.32994583,96.4049715975,13.1478608,21.4320783325,23.5190283325,27.4127083075,23.20998833,31.9013125,39.2116724975,49.37294175,507.5414167
4,17.25,26.70380002,11.71041443,-3.2737968025,-0.1399178675,397.073812375,3.694074818,1.6725299545,0.24352680725,16.4905633275,39.99300333,96.4109361325,9.7216634775,21.663055025,23.6220825025,26.4620133075,17.7423891675,15.3151525,24.4254883325,-22.5303130475,273.474649975
4,17.75,2.4577105865,7.391439531,-1.6190406705,-0.08942926975,397.422556775,8.3853711705,1.33949582175,0.19872632775,15.960305825,41.0766916675,96.4101951125,6.24904287,21.7519533325,23.5663900025,25.506732525,12.0484086675,2.53898285425,11.929557585,-77.23115833,96.2560774975
4,18.25,-18.18727127,1.27625067,0.301919039,-0.0660561505,398.41225305,1.59836831675,1.08003221625,0.1375403665,14.4196358075,49.0345633325,96.4068479925,8.1022014725,21.840422475,23.4743041675,24.660000025,4.3344035,-9.74863841775,3.667775967,-96.57585917,9.24829365025
4,18.75,-21.6491133075,-3.322019225,1.2838372515,-0.043230364,398.864518375,0.01906866125,0.9759326105,0.10902155125,13.519181675,44.0973099975,96.42591896,6.6242720575,22.0204191675,23.3325783325,23.7386166925,-3.6647536165,-21.2928149975,-3.0044083815,-95.909788335,0.1049474665
4,19.25,-22.25633015,-2.991850365,1.1108078565,-0.03550282925,398.814789525,0.0029559365,0.78980810025,0.0925365155,13.0310008325,45.864205835,96.4551908025,6.275625795,22.0511783075,23.1589583275,22.8411766775,-9.33721100025,-29.94773917,-8.727860167,-90.6148666675,0.042057165
4,19.75,-26.936880155,-5.10874262525,1.0911702765,-0.0321124285,399.76899755,0.00168612675,0.8669724715,0.081487768,12.84111417,52.849624165,96.4757343725,5.8909265,22.0607608575,22.9748608325,22.030764975,-11.7954000025,-35.00013167,-12.2638641675,-87.6979399975,0.0411
4,20.25,-27.14217442,-4.52899779,0.7382073175,-0.02864241675,399.118193825,0.00394339025,0.82905853225,0.08283557675,12.701836675,54.390345,96.4985219925,4.7602366075,22.0509725,22.7699933325,21.2499941725,-13.8908958325,-38.2297050025,-14.7848474975,-86.2194449975,0.034075
4,20.75,-24.3426649525,-3.768804506,0.37429066625,-0.03008276575,399.919273375,0.001817992,0.770110964,0.09151373,12.5633833325,53.1067199975,96.51703573,4.69221719,22.0286766675,22.487915,20.550421675,-15.291344165,-40.073178335,-16.8704866675,-84.4857225025,0.03709481
4,21.25,-18.6632373575,-3.83678999675,0.395132497,-0.0243989155,400.52279425,0.000845101,0.72544040475,0.0829846305,12.5452867,50.697030835,96.5230009575,4.15151481,21.92888167,22.1782658575,19.9973641675,-15.992921665,-41.5568150025,-18.1463325,-82.6946950025,0.0318
4,21.75,-22.7828409525,-4.4354348425,0.60335328475,-0.02772907925,399.881229775,0.003889849,0.882782976,0.09622861125,12.515195,53.35573583,96.5127525775,4.494841305,21.7923558325,21.868887525,19.5326441775,-16.5155049975,-42.39806667,-19.1419025025,-81.58618,0.0331
4,22.25,-28.70739028,-0.687635973,1.06995293975,-0.0274985835,399.6506495,0.001415057,0.8424179345,0.09336935075,12.218758325,56.8317424975,96.504202175,4.37325282,21.7261116425,21.5963866925,19.206949175,-16.7559475,-43.3673158325,-20.123820835,-81.6048866675,0.02912529
4,22.75,-26.4158804375,-3.407117454,0.843651627,-0.0404165485,400.80700595,0.425663895,0.8760667335,0.08060401125,12.000463325,56.49126417,96.497872015,4.19058025,21.6668041925,21.3191666675,18.9093750025,-16.597490835,-44.16383,-20.91627,-81.792460835,0.031125
4,23.25,-26.7560951,-3.3397479295,0.754032447,-0.036639294,400.836968975,0.0009054805,0.87200318675,0.08882066575,12.0505208275,54.3026599975,96.4973322425,4.314944595,21.4774983325,21.05083585,18.6184725025,-16.590676665,-43.8046724975,-21.4782550025,-79.9649625025,0.027475
4,23.75,-24.9885785975,-3.07580603125,0.53170660925,-0.032983532,400.5057638,0.0020368855,0.833785321,0.09131346925,11.6311691775,53.1322508325,96.49619116,3.766332545,21.379860025,20.79375,18.14965083,-16.66658083,-44.044226665,-21.7651149975,-80.1514499975,0.028475275
5,0.25,-12.12041908,-3.767257922,1.08675986175,-0.0315115565,389.6581823,2.2106254665,0.68390628525,0.09049357025,11.2987841675,82.345505835,96.370302015,1.77677884,24.0534733075,23.610835025,21.037917525,-16.3873450025,-42.1497875,-21.999463335,-74.2171950025,0.0278
5,0.75,-9.955228592,-1.10715327625,0.820523207,-0.03602023075,390.53037985,1.8079447055,0.7310106165,0.075390383,11.4306408,81.928124165,96.35499953,1.889258135,24.010974175,23.4465308225,20.8394449975,-16.48225167,-42.076175835,-22.377254165,-74.1764125,0.030126868
5,1.25,-15.550368175,-1.108325145,0.8500085645,-0.03599045075,390.0214393,2.585898513,0.74840237825,0.09161153225,11.08557,81.1442125,96.3382758725,1.7795174475,23.852915025,23.2879158275,20.5593024975,-16.46410083,-42.41713417,-22.7018875,-70.9747649975,0.02747129175
5,1.75,-12.29908967,-1.424602681,0.9650849325,-0.04013680075,391.6519708,1.657219476,0.65038014675,0.0829781925,11.2136617,82.20996833,96.331329215,2.02872561,23.720555825,23.1067367,20.3090241675,-16.3167708325,-42.04578167,-22.891845835,-68.031915835,0.026175
5,2.25,-14.876530665,-0.546539654,0.856621048,-0.031496778,391.62959665,0.0026739385,0.7982778005,0.0917308375,10.9585425025,82.5177850025,96.31630637,1.90270906,23.54298585,22.85528,19.9995825,-16.2862866675,-42.6617199975,-23.0058025,-69.2424941675,0.02845
5,2.75,-10.423873145,-0.549971313,0.57862179675,-0.0340403325,393.19750305,1.326731035,0.7792550075,0.091067175,11.15408835,82.7472633325,96.2938917525,2.15464989,23.5149942,22.648053325,19.5730541675,-16.2191741675,-41.7966783325,-23.153494165,-69.16945417,0.0238
5,3.25,-9.4460408415,-0.7499999785,0.722311387,-0.03422391075,393.73228955,1.043763261,0.752349623,0.0824277625,11.1864774975,79.51562333,96.27965508,2.12947854,23.3710475,22.482009175,19.2104149975,-16.340520835,-41.759975835,-22.9150975,-70.83313,0.03011846025
5,3.75,-11.2620579775,-2.04073073,0.3998359295,-0.02981421625,394.39643765,1.2386882105,0.62257593125,0.096813678,11.0820325,77.91411583,96.27405073,2.18711765,23.20652835,22.312499975,19.0139583575,-16.162295835,-41.3276399975,-22.9252416675,-70.4951649975,0.026175
5,4.25,-14.53294406,-0.363474873,0.985014551,-0.03263844875,394.3370287,0.003945694,0.79715713275,0.09727117625,10.819557475,80.39989583,96.2822181525,2.224749745,23.068057475,21.992643325,18.8835375,-16.0024924975,-41.464015,-23.0699249975,-68.1947783325,0.042075
5,4.75,-12.735974425,-0.7658897815,1.03439903475,-0.040148863,394.10399445,0.2225309005,0.75032755675,0.08641385575,10.64538833,80.2448074975,96.29125198,2.145029965,22.8993033,21.7723624975,18.7468066675,-15.537844165,-40.886465835,-23.24774667,-66.01361083,2.130402403
5,5.25,-11.4538570925,0.21125258125,-0.059561193,-0.0405948585,392.158562775,1.66853760175,0.6368162045,0.08738753275,10.7598625025,80.401078335,96.3113847025,1.9383132725,22.750001675,21.5500008325,18.6323616925,-14.9749300025,-39.9779849975,-23.3858183325,-54.1467624975,18.34860833
5,5.75,-4.167006741,0.856139526,-0.845254246,-0.04003186625,393.92017175,4.6894762325,0.58569116225,0.090456375,10.9491991425,79.7287383325,96.3553638825,2.3229722625,22.70236415,21.4255558,18.4134708,-13.885075,-38.4847675025,-22.81386917,-32.1379140825,61.7247025025
5,6.25,6.83879279425,8.532608141,-2.64922512775,-0.045619429,396.0826234,6.3501575995,0.5986196485,0.110732543,11.58886167,76.458470835,96.38830039,2.251453935,22.59992835,21.2630483,18.265905825,-12.0959575,-35.916578335,-21.5987225,19.0088012475,122.32707
5,6.75,22.2936650675,12.91622904,-4.81403898375,-0.0547557865,396.378672875,3.976411847,0.46286625875,0.1238018715,12.2795308275,72.087510835,96.4031769725,3.69570101,22.423266675,21.120144975,18.28847335,-10.1630639975,-31.6714883325,-19.921750835,44.47343888,220.72190835
5,7.25,35.99956577,14.3917241125,-5.7142149815,-0.068425731,396.65864885,3.4992058805,0.705992743,0.138672153,13.09508835,67.933323335,96.415072695,4.9574306475,22.3533333,20.970275,18.574445,-8.395529333,-25.8231,-17.57895167,103.54818,390.02931665
5,7.75,60.19774289,22.5101623625,-5.658646636,-0.098491832,396.636756,3.5860166895,0.803572292,0.16744290475,13.514417525,63.3990591675,96.40543143,6.3909819675,22.2190966725,20.944165825,19.03041585,-6.83028158325,-20.1317975025,-14.961455,136.751890825,448.99929165
5,8.25,72.6496341875,27.29131194,-6.355425579,-0.11161795675,396.65631175,3.61582211225,1.01845039025,0.1768809955,13.9191099975,59.3647524975,96.4038750475,7.15417903,22.0544475,20.8418083,19.6223650025,-4.91765399975,-13.73111217,-11.9233375,183.0199167,566.302408325
5,8.75,101.4188544275,32.99252802,-7.05055843275,-0.1330389565,396.1907154,3.6841490585,1.126603995,0.198269077,14.599045025,56.8007624975,96.4150799225,7.66916841,21.88555,20.8501392,19.8718016675,-4.42498766675,-5.5818561165,-9.41123008325,205.184376675,621.58215
5,9.25,119.67760524,33.8826287025,-7.54731584775,-0.190270531,395.3610952,3.67088973,1.424247736,0.274705163,15.1245750025,54.298874165,96.419498155,8.15024625,21.8702799975,20.940695,20.190835,-3.154699417,6.59312079675,-6.55448541675,291.49803335,865.3236833
5,9.75,133.7218545,36.00344359,-7.486174116,-0.2041678205,395.32738025,3.922226628,1.92234929025,0.28358760075,15.5759708275,53.24272333,96.4221811475,9.02581895,21.8286108,21.0501425,20.92840167,-2.1430990585,19.163324,-4.76931375,297.03881665,915.27733335
5,10.25,134.900692625,38.30377698,-7.47187534925,-0.28540617775,394.9821073,3.92153683675,2.130943781,0.30494330675,15.966574975,51.2466816675,96.432402965,9.60785524,21.82430835,21.13652415,22.238889175,-1.223271058,29.2934950025,-3.175528008,304.67965835,857.39029165
5,10.75,182.296561525,33.2025961,-7.9127475875,-0.3109274515,395.5347818,4.085792121,2.6276066525,0.34535532525,16.3625333,51.3134374975,96.4202009825,10.2030973375,21.8294442,21.246943325,23.71485585,-0.27432287875,33.57851583,0.922459256,405.8742083,1302.312217
5,11.25,191.4903192,37.94829629,-7.897890192,-0.3232682485,394.723935225,4.27900786675,3.00748249625,0.36398903625,16.6454575,50.2591600025,96.4059209725,10.478050645,21.86332835,21.3904183,25.8270108075,1.542490634,46.6449775,5.830713083,430.079293325,1294.6010165
5,11.75,218.79857415,33.59743795,-7.4138690725,-0.304539758,394.847162525,4.3160321905,2.8400024895,0.382951735,16.5946833275,50.45527,96.4122103625,11.494093285,21.9229150025,21.6870891725,27.1379849975,4.33904041675,49.35031,8.74407091675,377.678675025,1134.48639725
5,12.25,217.316496325,32.8516916075,-7.61469362925,-0.294922001,394.8499305,4.41236367725,3.092289428,0.3825360555,16.7470616775,50.122444165,96.3980144125,11.012297685,22.2123592,22.4968742,27.597915825,6.3198020835,51.3401525025,13.102005835,412.598450025,1276.06927475
5,12.75,225.6522341,38.85162542,-7.7685981495,-0.303866155,394.497450125,4.424851981,3.0706487465,0.3891406295,16.969555,51.31597,96.393929385,11.47969145,22.497080025,23.023409175,28.9442358,10.0031365025,57.818600835,17.84090833,404.32118335,1253.98231675
5,13.25,259.4984768,38.4085108475,-7.7634804205,-0.29431127375,393.939409825,4.5514575155,3.18823100625,0.4120755755,17.0850458075,51.3650399975,96.3933003975,12.3276037875,22.7450016675,23.8637492,29.99583085,12.0687646675,59.9179424975,27.1578225,440.51125,1339.128083
5,13.75,250.98175165,33.026853,-7.610409583,-0.3047105945,393.576938,4.607235848,3.268136993,0.3937938905,17.115097475,51.1349924975,96.35611397,12.217267945,22.943747475,24.1059016925,30.6964583325,16.2120175,58.836196665,30.13521333,454.822924975,1350.056867
5,14.25,249.02454235,29.75055904,-7.41846040625,-0.287007426,393.7242491,4.578311281,3.04362977475,0.39014346925,17.384630025,52.27922,96.3530175825,12.135823655,23.1886133225,24.850832475,32.452847475,16.5048899975,64.3840824975,34.389456665,414.6547375,1335.92507475
5,14.75,222.118832,26.12064655,-6.84803814475,-0.30175946075,393.5725277,4.49803518825,3.05893151675,0.38383418425,17.091103325,51.7657349975,96.342867115,12.11610941,23.706516675,25.3939583325,33.4516633275,19.03681333,65.964735,42.034516665,328.12498665,1147.040532
5,15.25,214.638525375,19.95053694,-6.57467830125,-0.2734639315,393.09831585,4.4733690905,2.9098198685,0.359205853,16.939820025,52.5981875,96.329010805,11.30474908,24.039860825,25.7122924975,33.539862475,19.688421665,62.2620458325,43.535198335,285.770970025,987.833383575
5,15.75,187.06283045,19.43996573,-6.4353308265,-0.26760992125,392.90903715,4.357261108,2.727292559,0.33093755225,16.576727475,53.690311665,96.3179348025,10.6400136575,24.3831258,25.8717358225,32.646455825,21.1345249975,50.1129791675,44.13407333,224.617893325,886.3371
5,16.25,143.131203075,14.95620916,-5.11387025625,-0.23377113925,392.97964455,4.4070789625,2.70555670525,0.33579236825,16.290885,55.061688335,96.30420934,9.33041268,24.532639175,26.1141658325,31.6531267,15.643278335,38.8951100025,36.62900833,137.97279835,663.6966083
5,16.75,107.2737001,10.3477256,-4.537632177,-0.200665765,393.5134201,4.4236010775,2.64070940675,0.32795600125,15.8318567,56.304225835,96.2858464925,7.373713215,24.5619442,26.240202525,30.72083335,13.7196525025,23.53293417,30.08864583,71.950179165,485.56336665
5,17.25,75.187163405,6.9498326085,-3.3344132045,-0.16724822575,393.25349165,4.667105212,2.44020384475,0.31688794575,15.3668083275,59.10345083,96.2751261375,7.82731181,24.610000025,26.2314583325,29.73583335,9.35898325025,9.5090300835,22.74456167,13.918605665,302.653775
5,17.75,32.5928436325,3.8914511465,-2.1645668315,-0.139884231,392.537504,5.122076278,2.2126919155,0.27288847025,14.6668983075,62.9098541675,96.270844735,4.44768863,24.68875,26.200833325,28.8177083,4.90815450025,0.45113499425,11.9416792525,-43.0401616675,99.115162525
5,18.25,7.23567042825,0.0315265305,-0.26804476575,-0.10423927575,391.00621205,4.344568078,1.8902843095,0.20849365275,14.008099175,68.42921167,96.2839948875,5.10862972,24.814859175,26.174580025,27.92645835,-0.9230234345,-11.4809185,4.74377575725,-80.19056,23.06197125
5,18.75,-9.7773716825,-1.5427548345,0.954825916,-0.06385883875,390.07757115,0.23763418425,1.39893456175,0.15077728475,13.164645825,74.0825425025,96.3199042475,3.66252494,24.84625,26.07223,27.09756915,-3.61657809425,-23.62034083,-2.91967889675,-91.3225850025,2.229389958
5,19.25,-9.28124304925,-2.71751766175,1.3098143005,-0.0453710025,389.8504386,0.002618321,1.19345600675,0.10951991525,12.6435916675,77.5372833325,96.3456197325,2.97385852,24.871178325,25.97861085,26.303470025,-8.4571631665,-31.2771575025,-8.817781167,-89.45898917,0.0437
5,19.75,-8.176196746,-2.130126042,0.966247028,-0.06044554725,389.3505206,0.0024041075,0.9794428525,0.1129764765,12.5524817,78.4646950025,96.3745635275,2.316279505,24.8565908075,25.723749975,25.4072241725,-11.766766665,-36.00529583,-12.39911417,-84.307033335,0.031475
5,20.25,-12.077594305,-3.259378199,0.98197480175,-0.04191061375,389.288957675,0.0010731395,1.01028778275,0.10007375825,12.4053683275,78.47753417,96.410622755,2.2988621,24.80506167,25.50340165,24.5737508275,-13.8369799975,-38.62449833,-15.547813335,-83.1790958325,0.03048949
5,20.75,-11.1599062025,-2.3045403195,1.026341867,-0.04166416575,388.770817525,0.001044207,0.92719774775,0.0980613635,12.33545665,77.532573335,96.428045225,2.44458518,24.70104333,25.34486335,23.8826383225,-14.81739583,-40.710641665,-17.8999249975,-80.6707549975,0.03146165975
5,21.25,-12.6174790225,-1.2941169255,0.97701708525,-0.0366931325,389.1390487,2.612007501,0.74966115125,0.0911458615,12.2431675025,76.5991025025,96.4381839675,2.275634945,24.6766666775,25.0772917,23.4406333075,-15.3552925,-41.88711667,-19.151664165,-77.990076665,0.028777355
5,21.75,-12.1206511825,-1.970839926,1.005887463,-0.0324723755,389.2563988,2.034274305,0.7280796105,0.0917473925,12.30833165,78.332405835,96.43268004,2.2740271325,24.6266667,24.756460825,22.8281891425,-15.719324165,-42.4200991675,-20.6187050025,-76.073114165,0.027807065
5,22.25,-12.9785041425,-1.5676500765,1.002908634,-0.02797482775,389.606730775,0.0020975155,0.8781847985,0.0749034845,12.107030025,79.6840174975,96.4240774275,2.1263568925,24.589375025,24.4562483,22.2510358325,-16.1339650025,-43.071158335,-20.95459083,-76.3310866675,0.03146448825
5,22.75,-9.691937913,-1.077785431,0.801751865,-0.03056569425,390.082993625,2.342707008,0.876318822,0.08405165075,11.815761665,80.0053733325,96.41387552,1.80500185,24.49298585,24.1376383325,21.851532475,-16.49553667,-43.14983667,-21.46497,-75.29956083,0.03310482475
5,23.25,-10.01347173925,-1.42195311725,0.9668818655,-0.0316864415,390.513598,1.51643091475,0.9349128445,0.0891613355,11.5373424975,81.38659917,96.399409965,1.7890891125,24.3893733,23.843260825,21.763745,-16.6246166675,-42.68028,-21.9600608325,-75.19822167,0.027475
5,23.75,-13.0022086225,-1.02248900075,1.0736804595,-0.031370223,390.3112418,0.001410508,0.77521380675,0.0885632525,11.5059708275,83.5991075,96.3779608275,1.912339285,24.345897525,23.712083325,21.4363941425,-16.6682224975,-42.772914165,-21.9521891675,-72.9117508325,0.02616523
6,0.25,-9.8960365675,-6.690272463,0.900129764,-0.0223938015,384.6650449,5.58534706275,0.67815518825,0.074364682,13.2524,73.08384667,96.2565330825,1.12096038,28.30208333,28.0008341675,24.9982524975,-17.4659924975,-41.730149165,-17.9584849975,-75.9300333325,0.0331
6,0.75,-12.9117099075,-8.221946302,0.81077303175,-0.033692725,384.9136047,5.869173821,0.744329564,0.078139001,13.2439391725,75.9440999975,96.2447643625,0.960239875,28.066458335,27.79479167,24.57167167,-17.6120175,-42.352504165,-18.55412,-78.2481625,0.029795825
6,1.25,-9.46773246175,-7.177640279,-0.617165646,-0.03691178175,384.4923394,5.696785838,0.67525702375,0.06895463175,13.2385599975,75.38783333,96.2334406925,0.80409919,27.987778335,27.522985835,24.2607616675,-18.0684816675,-42.8292900025,-18.8051516675,-75.933155835,0.02780234675
6,1.75,-14.0261272125,-5.528303773,0.4172201515,-0.03661030525,383.1556171,5.63884932475,0.6596506575,0.09281294575,13.137410835,71.9924791675,96.2327658825,0.733509355,27.8163250025,27.277708335,24.0125683325,-17.9220174975,-42.7827441675,-19.34905,-73.5922333325,0.027809418
6,2.25,-7.282868669,-3.993359169,0.257085495,-0.034356431,382.3365313,5.26211099,0.56514567125,0.098575299,12.981057475,66.148703335,96.2299979675,0.72395504,27.7412508325,27.0018749975,23.7437475,-17.34428667,-42.8330391675,-19.798865835,-72.8047649975,0.02517068475
6,2.75,-14.3714249325,-6.7502544885,0.0506910275,-0.0375601585,381.6124473,5.64941589575,0.77325564775,0.10566514975,12.93166165,66.72717917,96.223666145,0.6762509975,27.7141666675,26.785415,23.5172891675,-16.71424417,-41.003595835,-19.685970835,-71.3791783325,0.020553105
6,3.25,-8.46984853475,-9.08500389575,-0.604846275,-0.0323389915,383.962811,4.2307513995,0.692308884,0.09804531175,12.896825825,61.788439165,96.22694301,0.6139666175,27.53125,26.5900000025,23.0745150025,-16.338735,-40.52315167,-19.61920917,-71.3067341675,0.025525
6,3.75,-9.70968905625,-5.6360911095,-0.23416562975,-0.04383090475,384.431826,4.846054765,0.63796919525,0.100540848,12.79722665,61.7639491675,96.2252290275,0.5820716,27.2266666725,26.301666665,22.7191683575,-16.073710835,-40.6263066675,-19.578543335,-72.31664667,0.017536535
6,4.25,-8.88762287575,-1.8222035945,0.102012463,-0.03483378025,385.0294268,1.02868398025,0.668744891,0.1020720925,12.6474375,57.0105250025,96.22958495,0.51521859,27.1679166425,26.1527091925,22.461529975,-16.25750833,-40.63773583,-19.7096824975,-71.503530835,0.1714915085
6,4.75,-5.94509443125,0.769990377,-0.3427398775,-0.028928553,385.9986413,2.2698632275,0.48226649725,0.089238349,12.516482525,53.87015417,96.2497957725,0.462758655,26.9334025,25.9097916925,22.1574308225,-16.2928966675,-40.2361125025,-19.9234500025,-66.7786491675,5.857198625
6,5.25,-7.02732483825,-0.4977481135,-0.326621875,-0.027785753,388.79363625,4.91826331225,0.4009086205,0.09858705575,12.524375,56.17269083,96.26515316,0.4227858175,26.7742391675,25.66750083,21.8526424975,-16.3290666675,-38.971310835,-20.118325835,-54.741623335,33.7977375025
6,5.75,-4.38084526775,-2.853072145,-1.38249323975,-0.04247083325,389.5158142,6.92644967725,0.554197674,0.11803569575,12.9060191675,56.088928335,96.281716165,0.4039812425,26.657500025,25.45152833,21.675140835,-15.30751,-38.3292274975,-20.10299667,-42.4544183325,85.2660600025
6,6.25,13.93815302,10.62103445,-2.811524596,-0.05821830175,392.6689495,8.943346232,0.35319899825,0.12186870775,13.4028800025,52.3148699975,96.3166055625,0.53131836,26.593124975,25.2841666675,21.6788850025,-13.60704167,-35.395365835,-19.3174475025,32.2594025025,168.886974975
6,6.75,30.5254913925,11.8204639325,-4.050040759,-0.06053063475,393.40635555,10.78168973,0.604706053,0.1218691975,13.7604075025,51.27073,96.3220185675,0.76694528,26.4046508575,25.1110416925,21.90201,-10.751605085,-31.88470167,-18.1798875025,66.303705835,281.982391675
6,7.25,60.86257703,16.65930409,-4.5390499485,-0.078970592,395.4102255,8.1100381305,0.829365627,0.127691317,14.43233,49.23215333,96.33594704,2.3828240775,26.24472,24.9999933,22.4058367,-8.159629667,-24.64151667,-15.91187,99.89986667,377.1528667
6,7.75,94.784611725,25.8509991,-5.765451875,-0.106345831,395.0042229,9.052140095,0.79045911525,0.1456437665,15.0246733,45.20038333,96.33465049,4.42267251,26.1766667,24.8988867,22.9300033,-7.106554333,-21.17366333,-14.46723,176.9463633,594.6571
6,8.25,118.94334915,21.9161792575,-5.324334508,-0.10881302425,394.0268282,7.446363218,1.033564481,0.21802074625,15.7633208325,40.11261083,96.326798545,4.6114049225,26.0843750025,24.8436125,23.506943335,-5.66601316675,-14.3979638325,-11.474629165,265.28703335,826.540124975
6,8.75,170.12709755,26.1318916475,-7.265094785,-0.17636542025,394.2369157,6.614075572,1.48983857775,0.28588605425,16.660333325,36.637429165,96.324359825,5.83650643,25.91,24.7606941925,23.747980835,-3.5676963335,-2.95227324175,-9.05944775025,455.693774975,1350.8823335
6,9.25,203.9850919,51.437555065,-6.176804487,-0.217548459,391.8085147,9.01324581075,1.727850514,0.297060853,17.38542,32.77445333,96.32210523,7.1197241375,25.75583,24.76444667,24.29528,-1.5470416,8.408001,-6.324965,495.629,1512.5283
6,9.75,225.3545855,37.6478198875,-7.144927449,-0.247347482,390.711685,9.431756735,1.973328251,0.342725237,17.39208,32.53657,96.34898456,8.2388089175,25.59582333,24.7700067,25.01111,-1.227681303,23.79139,-3.653886667,549.8541333,1685.707333
6,10.25,282.8620487,41.6276735125,-7.536288117,-0.282748723,390.0915208,7.881693893,2.933297642,0.382375721,18.3324233,33.79140667,96.3716642,8.72506808,25.58610333,24.78056,27.64666667,-0.165786783,38.96624333,-2.421658,590.4394333,1794.644667
6,10.75,293.1907435,37.86278691,-7.224258899,-0.30152597,390.3026769,8.79218839,3.422414713,0.440206537,18.31311333,36.62319667,96.36051009,9.10180475,25.58276667,24.95888667,31.62111333,0.759611733,56.27408333,1.433366897,610.5651,1871.068
6,11.25,303.1008781,38.20420795,-7.840809062,-0.333698049,389.3614681,10.23505938,3.499572893,0.408827443,18.79572667,35.82254333,96.363136,10.01305072,25.58722,25.205,35.0377767,4.047075667,70.93493333,6.339092,617.6472,1926.757
6,11.75,321.5404297,37.040643125,-7.58390632,-0.350151029,389.9424679,10.69957921,3.335038411,0.437605862,19.41239667,40.26459,96.35568563,10.49342751,25.59,25.64166667,38.15971667,7.920335,81.21490667,8.838336,626.1431,1927.285333
6,12.25,331.4522664,32.81237117,-6.967892818,-0.31906511675,389.3430121,11.211221,3.119411327,0.440195188,20.02976,40.19791,96.33644442,10.45950582,25.78110667,26.28472,40.2733367,11.40265,89.1877,11.95977,600.1754333,1925.958667
6,12.75,330.6029797,26.06928079,-6.886900127,-0.323716307,389.7965007,12.61649325,3.514687596,0.442690786,20.72215,40.89836667,96.31681937,11.56134378,26.07666667,26.99083,42.4761067,16.56567667,92.30147,19.09887,584.8616333,1902.991667
6,13.25,323.0331569,48.91886623,-7.220570296,-0.313371317,389.1333566,12.98392353,3.191039212,0.426611709,21.04970667,39.76929333,96.32089947,11.85118734,26.3025,27.81944667,44.4416633,22.79625,94.39937333,32.00117333,543.5165667,1812.506667
6,13.75,343.0370959,43.77700758,-6.572073213,-0.30804898,389.0716415,13.22852597,3.209675361,0.442437262,21.2461667,41.03016667,96.30837873,12.52664301,26.66139,28.33333333,45.91,29.31351,94.00347,45.45586,513.3062,1735.109667
6,14.25,332.73779145,44.4902607575,-6.809051673,-0.302980478,389.2979324,12.71076676,3.347053631,0.421408546,20.8546108075,40.5761833325,96.26612819,12.76404882,26.998543335,29.1693749975,45.416666675,36.81371667,89.5376891675,54.5652775,473.122449975,1635.99883325
6,14.75,300.1038546,35.64393012,-6.456198568,-0.297472784,388.5549286,9.732664478,3.395618787,0.410086916,21.1437867,41.35476,96.25015702,12.24389332,27.425,30.05333333,45.405,41.646816665,86.42863333,61.361965,402.9604667,1485.608667
6,15.25,278.7093267,32.49462403,-6.030537972,-0.30337209,388.3074016,11.35309691,3.278021499,0.418045354,20.5874333,40.27131,96.22472714,11.49898887,27.81917,30.84361,44.3819433,41.664485,79.93354667,64.1486775025,340.5774667,1324.777
6,15.75,261.2813395,24.00581215,-6.18548272,-0.30222359,388.4770542,10.89820528,3.129570181,0.416908369,20.3981667,38.55032667,96.20375427,10.67059154,28.15777667,31.54555667,42.83166667,40.91063833,72.29020667,64.184064165,268.6554667,1123.910667
6,16.25,217.3158266,22.55474794,-5.944203155,-0.275264273,388.5955,11.75154765,3.167286039,0.375184866,20.35298,39.64658,96.19077527,10.09531444,28.40833333,32.10027667,41.40999667,37.852028335,60.79338667,61.78538667,191.2045333,933.8383667
6,16.75,159.3535512,19.01839727,-4.95719067,-0.255564404,388.8066594,12.15405646,3.068586143,0.363343509,19.78311,42.11725333,96.19811542,8.70419989,28.64,32.42583333,39.60333333,29.62212,46.71351333,57.82812,113.47114,704.6912333
6,17.25,131.535116,9.033178771,-4.088365318,-0.217050279,388.5537947,12.5401846625,3.058472591,0.350126885,18.55278,45.22647667,96.18587978,7.2232020975,28.8775,32.63666667,37.83778333,23.63955667,34.53089333,51.06197,37.92477333,505.5689667
6,17.75,84.70573857,5.331801965,-3.17252087,-0.200629734,388.6657563,11.3747413,2.778539324,0.329392988,17.4784967,51.05747667,96.19828222,6.08119538,28.9725,32.49166667,36.14333,18.84134667,20.86269333,43.24545667,-28.891167,306.1461
6,18.25,38.61592024,-0.127148073,-1.10508205,-0.144615647,388.1886807,14.36341515,2.268077449,0.261429162,16.7568033225,54.9095274975,96.19365798,4.87233941,29.4245833225,32.410624975,35.26396083,11.41327958,6.68950076675,33.77076583,-77.9879258325,120.83464915
6,18.75,1.877987156,-5.963959372,0.308296019,-0.096152839,386.7946448,10.83476293,1.750617908,0.193353913,15.3235933,59.07010333,96.21439,3.24429216,29.2533333,32.18,33.30083333,1.37616723,-6.986395947,23.49363333,-99.99245333,19.681136
6,19.25,-7.568667876,-6.171659044,0.970497736,-0.062811538,385.7999082,8.79093345,0.994488057,0.117183723,14.80678,64.37585333,96.23222605,2.22210368,29.4058333,31.99,32.11056,-6.345360667,-18.11995333,13.12357433,-100.2707367,0.520433347
6,19.75,-11.1991897,-6.757098514,0.928597463,-0.052658588,384.7891935,7.505804027,0.706871755,0.104768946,14.4805867,65.37407,96.26266723,1.78676639,29.4491667,31.59944333,30.97528,-10.648925,-26.03309667,4.110558333,-93.83523667,0.0411
6,20.25,-7.052536246,-8.312254465,0.8518538445,-0.04616383,383.919445,7.234975863,0.762141589,0.114508631,14.3548833,68.60764333,96.28795435,1.68573415,29.4341667,31.31333333,30.055,-12.60613,-31.53889,-1.810024667,-89.74371,0.03310646
6,20.75,-8.194902973,-4.294622886,1.122027766,-0.027038755,384.1488473,6.479640381,0.659570529,0.080674966,14.00485,70.14461333,96.31165807,1.48325476,29.2841667,30.92222,29.32916667,-14.21616667,-34.45947333,-6.773096,-86.03354333,0.037079227
6,21.25,-9.493556649,-4.522138639,0.181116483,-0.027098516,383.949883,6.741962652,0.677518373,0.072170462,13.92575,69.38071667,96.31726957,1.46673071,29.2025,30.58083333,28.5025,-15.60126,-36.44477667,-10.01849833,-83.35238667,0.037079233
6,21.75,-7.251972575,-4.851028758,0.691691057,-0.025811054,384.238465,6.888041521,0.539999974,0.07342442,13.89588,69.19930667,96.32392172,1.45395018,29.1658333,30.19166667,27.78416667,-16.17439667,-37.87774667,-11.85519667,-80.22221,0.033106473
6,22.25,-7.321959486,-7.716085395,0.569609994,-0.025342789,385.561401,5.949578555,0.731651209,0.076410653,13.8326,71.30943333,96.30907287,1.23295695,28.8941667,29.83333333,27.08194333,-16.83267667,-39.70929333,-13.94214,-79.41964,0.033106467
6,22.75,-9.969917772,-5.248395296,0.58093082525,-0.026244167,385.454025225,5.865446885,0.588337513,0.080533735,13.80742,73.20909333,96.31205147,1.08335623,28.8341667,29.47333333,26.7174933,-17.58708667,-41.01247333,-15.15033333,-80.23133333,0.0331
6,23.25,-10.24497837,-3.54938955,0.659588644,-0.016574042,386.90782105,6.10379732,0.547611431,0.072474035,13.79097667,74.69307333,96.2901022,1.23203724,28.7616667,29.0875,26.35222333,-18.0321,-41.43971,-16.91967,-77.29015,0.03178222
6,23.75,-7.960441858,-6.88920084425,0.3718650585,-0.020361067,386.13550495,6.555285874,0.461091924,0.078459551,13.5883467,73.81292333,96.27128049,1.11802284,28.5908333,28.77333333,25.73388667,-17.32280333,-42.10432333,-17.58137333,-78.44197,0.029133687
7,0.25,-8.0183453925,-4.3145068715,0.313754448,-0.01960315375,376.038332125,14.82668022,0.3614280125,0.07509798725,15.880476665,62.4519400025,96.4240673,1.5028603125,32.673333335,33.2073616675,29.12979167,-17.34166083,-39.1326350025,-17.578714165,-65.06532583,0.0380724085
7,0.75,-9.63937977325,-7.05371167625,-0.252928487,-0.0177066665,376.336405725,14.657397145,0.49250412275,0.07391184225,15.99814333,60.323580835,96.40907824,1.26809699,32.61979167,32.8288850025,28.543958335,-17.232101665,-38.9805775025,-18.07041,-64.284340835,0.0397277465
7,1.25,-9.83519084075,-4.4290146135,-0.059617118,-0.023161766,376.8325515,14.625857335,0.427756653,0.086801959,15.848655835,60.2637325025,96.3994966625,1.186096815,32.4543750025,32.5706250025,27.97326417,-16.974883335,-39.0743024975,-18.5223900025,-61.655230835,0.03707923675
7,1.75,-11.8404996475,-8.3490806165,0.0768366955,-0.02908705425,376.91460835,14.39280826,0.39854645975,0.0873688365,15.7971924975,57.881395,96.38555556,0.987897545,32.256875,32.229583335,27.55895833,-16.7839308325,-38.8062074975,-18.9061158325,-60.153106665,0.03939667
7,2.25,-8.89143755525,-7.97465856,0.485981876,-0.02336751125,377.10743975,14.2411456675,0.47931519425,0.0771698165,15.7519633325,58.218531665,96.3688551575,0.947923975,32.105626665,31.9186808325,27.100208335,-16.38261417,-37.7180066675,-19.043810835,-60.3574725,0.031782233
7,2.75,-9.48673622475,-3.1385965745,0.23383547475,-0.026308544,377.6089873,14.2416803125,0.4668525045,0.0787448125,15.7605658325,57.94425833,96.3684103875,0.8555655225,32.0188900025,31.551666665,26.70694667,-15.671806665,-36.2427849975,-18.5941808325,-57.78268167,0.0403898765
7,3.25,-8.64767789175,-6.003951417,-0.30463351325,-0.025867789,378.704216475,14.152215585,0.43602731475,0.07919637025,15.708109165,54.7220841675,96.36556019,0.760606615,31.757290835,31.3070833325,26.4590949975,-15.6219575025,-36.0798466675,-18.3619091675,-58.989305835,0.03707928025
7,3.75,-9.5666999095,-5.4861630455,-0.13259318675,-0.02731794675,380.099212225,14.096589925,0.49553326875,0.07983718225,15.830425,53.87896333,96.37207714,0.80017171,31.6152083325,31.002638335,26.12125,-15.33708167,-36.2224124975,-18.480618335,-57.033480835,0.042376257
7,4.25,-7.80450887475,-5.0480566065,-0.25040543775,-0.0304161525,380.2526147,14.212202045,0.405476594,0.08040414075,15.5900675,54.6559858325,96.3740842775,1.0449901275,31.40770833,30.684164165,25.798470835,-15.183831665,-36.2858666675,-18.8373750025,-57.90489,0.05429459825
7,4.75,-14.024051675,-6.84546232325,-0.3282494005,-0.02250687425,378.59603885,14.223701305,0.58461314075,0.08875153225,15.57924,55.090319165,96.3998013475,1.05625426,31.38375,30.408541665,25.5411833325,-15.0911558325,-36.4815125,-18.9984041675,-55.22542667,2.8868844385
7,5.25,-9.401291829,-3.35243810125,-0.2026628215,-0.0282154825,381.1520463,14.0412522775,0.43530184325,0.08269803725,15.45795667,55.07203,96.416775075,1.062503925,31.2518750025,30.17479167,25.4683291675,-14.8275133325,-36.1810325,-19.0837583325,-47.8566741675,31.444199165
7,5.75,-6.6117097935,1.4408545265,-0.910612637,-0.02767860725,380.58529,14.8578475125,0.34627290775,0.10479527125,15.4889983325,55.7019383325,96.43654721,1.0009191925,31.086736665,30.0206249975,25.259513335,-13.784113335,-34.871606665,-18.858488335,-32.2144249975,83.294886665
7,6.25,11.0826916675,6.43421618,-1.5223012115,-0.0493386975,383.043856375,15.861958595,0.286172072,0.1135770625,16.150073335,53.225523335,96.470994155,1.18766655,30.79,29.80125,25.070553335,-12.669911665,-32.947315,-18.305075,36.65641073,226.83036665
7,6.75,47.294180455,10.6301671,-3.422355716,-0.053524554,386.6380687,17.3666021325,0.477279101,0.1439483555,17.124311665,49.649075,96.49807397,2.32210983,30.70972167,29.57041667,25.18458,-10.212513835,-29.597871665,-17.47037333,109.34170665,427.74556665
7,7.25,77.7182646375,18.9928450175,-3.38689735275,-0.074209518,387.7955349,18.175041895,0.7906344545,0.17156402275,18.6789125025,50.8576416675,96.49563347,4.6110284725,30.674791665,29.4212500025,25.48402917,-7.9825893335,-25.8363716675,-16.2585608325,188.731188,640.18450835
7,7.75,111.7183526,25.13924853,-3.19305977175,-0.0945599485,387.305275575,18.6154503925,1.15331279575,0.1932253585,20.1616924975,49.5894150025,96.4863954325,6.866736115,30.5037500025,29.20458333,25.8300675,-6.95530000025,-20.8282858325,-14.9246025025,303.5687917,890.428075
7,8.25,137.671930675,24.647418605,-3.29842090075,-0.12626560625,386.19167655,18.2246673825,1.34739521025,0.2534530205,21.4298658325,46.6601974975,96.48828717,9.9253362775,30.407916665,29.003125,26.3424291675,-6.1132751665,-13.03913533,-12.996575,373.871233325,1116.836292
7,8.75,182.94733645,25.7255765925,-3.69816575775,-0.16633141325,385.223345125,17.4234404775,1.904135655,0.31895306025,22.7861724975,41.80853417,96.498075345,12.2857682325,30.324375,28.9137500025,26.7103433325,-4.8334879165,-4.922049292,-10.4653305825,438.249883325,1259.26745825
7,9.25,228.084551475,29.007527445,-3.748545668,-0.2015652695,384.2943496,17.374210095,2.270773887,0.3422550865,23.812599165,41.0145650025,96.4908401725,12.88915118,30.11479167,28.91,27.3066666675,-3.34700599975,7.71176053325,-8.1404435,488.384474975,1451.63510825
7,9.75,253.217723875,30.23969449,-4.0980330075,-0.25308612275,383.344904975,17.451703045,2.69857806625,0.38118574975,24.6998925,40.96984167,96.500386745,15.091120015,30.0887500025,28.91,28.014515835,-2.15879049975,20.9826874975,-5.724320833,528.310366675,1579.643558
7,10.25,292.184630825,38.78090703,-4.55691566975,-0.2951977395,382.60804945,17.72952781,3.064700954,0.42276062825,25.6007000025,41.261615835,96.48936558,16.55844582,30.0739583325,28.91,30.6027091675,-0.877929567,35.7901875025,-3.11496524975,562.2602833,1710.74575
7,10.75,313.6971544,27.525301215,-4.594723877,-0.310113909,382.9621565,17.774489395,3.401199318,0.451258602,25.83798333,41.10091,96.47784356,18.137472005,30.06166667,28.92583333,33.96888333,0.316080667,52.26501333,-0.344083757,589.9742333,1799.250333
7,11.25,328.7518882,23.712637575,-4.410300572,-0.340879192,383.2204346,17.6252855,3.519171749,0.477922135,26.16025333,39.80644,96.46244305,18.0635609975,30.0575,29.15083333,37.39055,2.380273933,66.39976,4.472774,604.1507333,1851.769333
7,11.75,369.3769973,30.52994228,-4.123886425,-0.354501407,382.3959023,17.69827731,3.522476792,0.494416972,26.32243333,39.08600667,96.45352909,19.1803513675,30.055,29.47583333,40.71639,5.076966667,75.47897667,8.743675,611.1605,1900.268667
7,12.25,379.481381,41.704610285,-4.908672017,-0.374008975,382.5588746,17.67662321,3.589984577,0.505336511,26.25882,37.09245667,96.44324313,20.17447822,30.06416667,29.93583333,43.55805333,7.055437667,81.06492,12.66395667,608.3085333,1903.346
7,12.75,401.1800123,33.45234148,-4.819908773,-0.388899429,382.8811356,18.12382685,3.668122096,0.516188636,26.26029333,36.08307667,96.43456224,19.6709639,30.08583333,30.53416667,46.20083333,11.69487633,86.07660667,20.6251,579.8573,1869.521667
7,13.25,376.4951973,25.237291275,-4.70002433,-0.3819628715,382.6950599,17.8608797,3.645606208,0.501420225,26.40729,36.06724,96.42127475,19.61301495,30.19583333,31.34777667,48.08666667,18.28529333,86.41038333,32.58676,544.8395667,1818.144333
7,13.75,377.8499428,26.728517135,-4.492273834,-0.359957214,382.881584,17.22842602,3.622166538,0.498599828,26.49159333,33.93912667,96.41627861,20.76436623,30.47166667,32.13611333,49.44972667,23.69338,86.05672667,43.55401667,509.3921333,1737.372
7,14.25,352.2288336,20.873599905,-4.537820795,-0.345287572,381.9653407,16.74633237,3.570467476,0.496553605,26.33088333,34.29221333,96.39447904,19.60426807,30.70777667,32.94945,49.62861,27.57557,85.36207333,52.04331,445.5212333,1610.436333
7,14.75,336.0042969,22.8646795,-4.162819878,-0.343613546,382.1292434,17.25557942,3.585182535,0.495141779,26.03377667,37.07571667,96.37898723,20.05956017,31.05083667,33.74221667,49.874588335,28.69242333,80.91994,55.88031333,397.3366333,1474.217333
7,15.25,302.9760961,14.9678986125,-4.042317261,-0.335324379,381.7710256,17.08199578,3.434037954,0.46528584,25.90701333,38.85734,96.34915307,18.91544025,31.37833333,34.54833,49.3831241675,29.46063,73.52447,56.74652333,335.0247667,1317.508333
7,15.75,289.1324707,14.71941496,-3.956848732,-0.30777329,382.2356157,17.2528656,3.445480611,0.466428691,25.8308,36.53569333,96.32183581,18.6034456925,31.57083333,35.08444667,48.00500333,27.82131,66.42126667,56.39337667,265.5281,1147.6528
7,16.25,244.2809992,15.4000980925,-3.566926326,-0.292291437,381.802446,17.55323224,3.284807644,0.445237165,25.31079,37.9578,96.30925801,16.5556121075,31.97444333,35.69333333,46.74361333,26.46922667,56.81574333,54.61413667,191.8368,924.7310667
7,16.75,201.4175593,9.652571704,-3.169205971,-0.252714683,381.9813011,17.92545362,3.139620181,0.419003702,24.67574333,40.95081,96.30744797,15.83201222,32.225,36.21333333,45.09,23.89536,45.56472,50.99546,114.7338033,708.5513333
7,17.25,150.8099291,-0.183089007,-2.359880561,-0.216487928,381.8808682,17.8280107,2.965286866,0.388058314,23.90822667,42.13386,96.30558665,14.25428259,32.57166667,36.51,43.5325,21.32057,34.49534333,45.21698667,40.44859033,501.8306
7,17.75,105.8807236,0.208371882,-1.888056158,-0.199001571,381.7796594,18.00347371,2.821831021,0.357728691,23.04635,44.42944333,96.31729208,11.83041348,32.695,36.51555667,42.13444667,17.21660667,22.24432333,37.63828667,-21.73517267,304.3067333
7,18.25,48.99313476,-4.535674652,-0.780449812,-0.173885583,379.6408506,17.59134137,2.624520493,0.310746624,21.97993333,48.27158667,96.32352327,9.89748443,32.71361333,36.51,40.70861333,10.197132,11.07673233,28.11062,-69.64293,132.76753
7,18.75,10.31395705,-10.57113322,0.167019047,-0.117662617,377.1416679,16.53489153,2.133936979,0.234694274,20.21422333,54.21624667,96.33670093,6.67558339,33.02778,36.51,39.31167,1.26387065,-1.681147733,20.28903333,-94.02618333,24.067079
7,19.25,-9.307448362,-8.109127719,0.743101189,-0.085233588,377.1008482,16.14265764,1.604044411,0.189812447,18.84391667,59.27585,96.34732136,4.63050873,33.11,36.50778,37.98027333,-6.979783,-12.68385467,12.130013,-95.13622667,0.758800507
7,19.75,-10.70851454,-8.012397822,0.814849109,-0.053516406,376.7447107,16.04359831,0.875971198,0.126745143,18.29038,59.47126333,96.38474906,3.47288708,33.11666667,36.20667333,36.685,-12.22084,-21.86063333,4.770158,-91.22172333,0.060915867
7,20.25,-7.838595431,-5.494826555,0.74579142,-0.035217145,376.9865906,15.83060947,0.61705496,0.111934487,18.01660333,60.33740667,96.41523264,2.81069853,33.18583333,36.01667,35.37666667,-14.81428,-27.13402333,-1.237289007,-85.46411667,0.051646047
7,20.75,-6.794603957,-5.841740918,0.458395057,-0.030247015,376.7399855,15.68474086,0.294575577,0.091853112,17.87223,59.97370667,96.43957322,2.4019169,33.25,35.66889,34.28805667,-15.55591667,-31.25320667,-5.390645667,-82.10414333,0.050321793
7,21.25,-6.9397799,-5.326831489,0.327502256,-0.018736568,378.411119,15.4852936,0.430786336,0.085772656,17.44107333,60.98002667,96.45004827,2.28670697,33.19083333,35.33444333,33.20028,-15.92571,-34.01409667,-9.078377,-79.41483333,0.046349067
7,21.75,-9.959694736,-4.325743005,0.31783352825,-0.016688921,377.546714,15.14914777,0.414953479,0.077004897,17.49262667,60.51929,96.45925367,2.38256387,33.1125,34.97889,32.33917,-16.35240333,-35.99853333,-11.32967667,-76.86177333,0.0476733
7,22.25,-8.12757841,-4.731511555,-0.017866375,-0.016707096,378.0035781,15.0089915,0.44279706,0.071485852,17.18418667,62.433,96.46074796,2.16501582,33.11,34.71194333,31.62666667,-17.03058667,-37.83300667,-13.20537333,-74.8004,0.045024773
7,22.75,-8.370258271,-4.262456673,0.221183627,-0.018522921,377.1155698,15.09503941,0.534070676,0.076737836,16.88342333,63.94666667,96.45219363,2.05864216,33.09222667,34.29777667,30.9025,-17.37686,-38.4007,-14.74732,-72.64071,0.042376233
7,23.25,-11.16030098,-8.888473172,0.3355174685,-0.027662222,377.8277221,14.9067892,0.467701449,0.069398125,16.67375,62.71998667,96.44328025,1.74262341,32.82916333,33.94333333,30.27,-17.51878333,-38.85332,-15.70135667,-70.66665667,0.037079247
7,23.75,-8.273431438,-7.488113057,0.1765854355,-0.02358401,376.42575735,14.85773423,0.44692331,0.071782109,16.26057,61.77341,96.42963153,1.75359034,32.7075,33.49777333,29.7325,-17.54253333,-39.10821333,-16.77736,-66.92531,0.038403473
8,0.25,-6.35849684975,-6.056043249,0.30728090975,-0.0207406265,379.4410233,15.50271541,0.46014171125,0.08252191775,16.269765,77.45002917,96.34690557,1.6471780775,32.0975058325,31.99416917,27.4718750025,-17.9174424975,-39.1149066675,-18.2621991675,-64.6106741675,0.03575493675
8,0.75,-7.0721333975,-4.338698325,0.138518323,-0.02351588325,379.673970275,15.399265355,0.38240633025,0.07293634775,16.35114417,74.69571833,96.336307755,1.483323625,31.8116641675,31.6212499975,27.08555417,-17.53048667,-38.986570835,-18.65339417,-64.39395833,0.036748167
8,1.25,-7.79422831175,-6.702834466,-0.1765042095,-0.02226082,380.058240725,15.31120678,0.494206335,0.078143633,16.2269741675,74.55725,96.3262181725,1.39577367,31.6956250025,31.35513917,26.724514165,-17.031088335,-38.7041025025,-18.70676083,-63.685051665,0.034430695
8,1.75,-5.769457439,-5.399449743,-0.110491674,-0.020986817,379.705306175,15.379521735,0.412767616,0.08017459825,16.198208335,73.9744191675,96.3197702525,1.338008285,31.5324999975,31.09166583,26.5502099975,-16.91099417,-38.7686899975,-18.91847167,-62.59739917,0.035423893
8,2.25,-6.23140661675,-5.36419822275,-0.013231445,-0.02599291325,379.320387,15.56372433,0.44649971275,0.06936690225,16.08764583,76.76149,96.30910328,1.2414436925,31.3999999975,30.870216665,26.4104825,-16.8976758325,-38.5005666675,-19.150159165,-62.04775833,0.03409960675
8,2.75,-5.832096031,-5.924979873,-0.10383982575,-0.0236276905,378.57406565,15.6052025,0.4749271705,0.0843615355,16.06883583,77.834183335,96.3056770625,1.193091,31.348125,30.631875,26.213196665,-16.837926665,-38.1398450025,-19.4127825,-60.8392308325,0.0301268385
8,3.25,-7.65105922175,-5.075914168,0.146180388,-0.02362383375,381.4600225,15.6286274225,0.47709010875,0.0752074295,16.06627167,78.147485,96.30762442,1.0980385525,31.2679866675,30.419791665,25.99000083,-16.411648335,-38.028411665,-19.382223335,-60.5908549975,0.030788988
8,3.75,-8.6827894385,-3.645072121,0.1191639505,-0.026357447,381.10686005,15.247235465,0.50560184075,0.09447516025,16.06919417,75.3147316675,96.3047118125,1.0589027025,31.027915835,30.23708333,25.6920799975,-15.22439833,-37.4072591675,-19.4294525,-60.56926417,0.034099645
8,4.25,-9.172641642,-5.7065647925,0.206207212,-0.03532888825,382.4178147,15.2636708125,0.485243131,0.08029484325,15.765675835,74.9326524975,96.312922995,1.01371534,30.9870875025,30.0418749975,25.44597,-14.119899165,-37.1491816675,-19.503993335,-60.0209374975,0.030126857
8,4.75,-7.15539018775,-3.860352126,0.188480311,-0.026599066,380.83368085,15.09342367,0.49054395425,0.08923808075,15.49516833,76.96104333,96.3255144625,0.8409702325,30.693953335,29.8352083325,25.1531949975,-13.700425,-37.0935858325,-19.530395835,-59.6585216675,0.10726495025
8,5.25,-9.7281617825,-6.2568032775,0.0375937445,-0.03149167,379.6625673,15.25607354,0.53762870375,0.10278103525,15.3429225,74.76471417,96.3418239375,0.790242445,30.635,29.66520833,24.98194417,-13.6790999975,-36.8184474975,-19.5710583325,-56.1823450025,8.655687133
8,5.75,-6.9792903725,-2.443656198,-0.1774269045,-0.03765316575,379.703988225,15.2827990125,0.50410319625,0.09520260025,15.4408200025,77.614444165,96.3640616275,0.85213848,30.58458333,29.512083335,24.7696533325,-13.0999541675,-36.66779667,-19.5817858325,-42.31254417,50.5068999975
8,6.25,3.79694299975,-0.85783559,-1.0603817245,-0.03974732625,381.74083145,16.509502045,0.3579892275,0.120852976,15.66562,77.4712925,96.3970431675,0.9691111,30.4581249975,29.30708333,24.5731250025,-11.85724083,-35.04518417,-19.51608583,3.7636479585,110.815569175
8,6.75,37.5225140425,4.82964416,-1.61477762775,-0.0569883495,384.749850475,17.920593535,0.35405185775,0.12387598725,16.0442316675,71.582481665,96.4316107975,1.4039390025,30.333541665,29.1031249975,24.5681250025,-10.52481608,-31.8697925,-18.13827333,57.8444375025,237.389016675
8,7.25,54.9013315925,10.8348351825,-2.33764951,-0.06424514275,385.23157965,18.0767786975,0.54189306975,0.158593217,16.77862667,63.48154,96.43786542,2.64359902,30.3175,28.9131249975,24.74270167,-9.1461231665,-28.07478083,-16.9407250025,138.4120392,566.020324975
8,7.75,95.27327408,17.135931775,-2.3791112415,-0.08936566025,384.8545743,18.21833684,0.821101731,0.17454994425,18.0327300025,57.6586966675,96.4353693625,4.598955495,30.1508333325,28.73791667,25.0737483325,-7.93791908325,-23.7615616675,-15.16361083,253.178465,799.304624975
8,8.25,141.7415128,19.185170755,-2.4777516915,-0.135186773,385.4864784,18.8887565,1.039265779,0.213362362,19.88025083,53.681704165,96.43907447,7.4148902675,30.0675,28.5681250025,25.6206908325,-6.37391491675,-18.1924591675,-12.7954400025,352.010225,1044.502125
8,8.75,172.21240135,16.59041005,-2.651868873,-0.1344372875,387.2829608,17.87134337,1.332146895,0.26957627,21.50182667,49.88879667,96.434140995,9.676857375,29.971666665,28.365,26.110973335,-5.0427013335,-11.249775665,-10.465258,415.07281665,1232.6575
8,9.25,218.0509846,19.762600045,-2.750624962,-0.175415161,386.11144455,17.232504165,1.839692599,0.3140226205,22.757883335,45.71409833,96.42173373,12.01111228,29.94916667,28.311666665,26.58111,-4.2006486665,-0.2688815,-8.465369167,471.8833,1390.617
8,9.75,261.897030675,15.74620579,-2.797485399,-0.234459432,386.3116138,17.4725858425,2.44945817325,0.3763777165,23.7892600025,42.912456665,96.4243993225,14.0660351425,29.99520833,28.311875,27.244514165,-3.42435724975,13.9167102475,-5.02197450025,517.6456917,1531.09199975
8,10.25,284.37492965,18.592339515,-3.182908373,-0.28245039,385.9351599,17.911033235,2.8540325895,0.416118387,24.4948183325,43.61460583,96.423259985,15.695105455,29.839583335,28.31,28.5088175025,-2.72335408325,32.1055550025,-1.77231113325,547.88908335,1643.105917
8,10.75,338.623991825,19.3753935975,-3.3744243455,-0.31441605025,386.690350975,18.4202630375,3.18992476375,0.480499368,25.1485566675,42.185595,96.3932056825,16.5397326325,29.7156250025,28.32354167,30.166874165,-1.14608907325,50.487695835,1.214703565,579.80980835,1737.15233325
8,11.25,360.0882159,14.48643391,-3.50367461675,-0.348728449,386.22937445,18.646486535,3.4890847105,0.509504434,25.495143335,42.019665,96.383674365,17.198052965,29.722916665,28.575833335,32.677916665,0.443813677,64.037798335,4.7463328335,596.55301665,1793.488667
8,11.75,384.5144796,15.70137004,-3.2480023935,-0.35420331125,385.82517255,18.169889555,3.6142506855,0.51462517775,25.64932,40.212959165,96.3626999775,17.9880937825,29.6687499975,28.8074999975,36.2079900025,2.67116375825,72.2806708325,8.331355833,599.530475,1826.92908325
8,12.25,386.2760021,10.96849912,-3.23970271175,-0.380066384,384.1342083,18.3885342975,3.65768680425,0.52869808825,26.225656665,38.9137350025,96.351109725,18.22459211,29.7352083325,29.1877083325,39.3753425,6.77051383325,78.4818775025,14.2745499975,577.93533085,1825.094833
8,12.75,393.577588425,10.72229993,-3.428278977,-0.37351113325,383.62904125,18.1386468625,3.67241232725,0.530537412,26.516814165,39.449093335,96.340076165,18.777279085,29.81291667,29.72979167,42.05944583,11.647688415,81.2523766675,24.14065833,554.740091675,1789.713083
8,13.25,390.86344525,5.295006127,-3.4329601925,-0.3743839335,383.74090845,17.5675248925,3.5563747675,0.50492508125,26.585031665,38.5816474975,96.3258365325,19.2120340375,29.9960416675,30.255833335,44.321943335,17.2558816675,82.6005125,35.7116350025,518.70399165,1734.45499975
8,13.75,382.881713625,2.1497090845,-3.3341726905,-0.347512974,383.94531825,17.82941755,3.542560242,0.5098946555,26.50926167,37.732343335,96.29825238,18.99064493,30.06166667,31.033054165,45.56375,21.3969274975,82.993705835,45.20392917,477.419558325,1650.958
8,14.25,372.471265275,4.28801672325,-3.289640338,-0.350511788,384.02687665,18.11084628,3.5141867085,0.504165088,26.241543335,38.04792333,96.279014205,18.49600286,30.10375,31.703405,46.772158335,23.702316665,81.6062400025,51.249305,429.8087417,1532.026167
8,14.75,360.0643946,2.16311565875,-3.2256131075,-0.347777041,383.8233889,18.2343430025,3.55333162775,0.510751601,25.8937641675,38.7096158325,96.2578083325,18.4357212725,30.374791665,32.1937499975,47.384374165,24.94907333,77.4267075,54.698793335,362.410525,1378.1835835
8,15.25,312.768182,-2.39024632225,-2.9469039055,-0.33497856475,383.3967588,18.151215535,3.6008179265,0.4882980445,25.6655608325,41.3820875,96.2440481925,17.9770301975,30.6927074975,32.876599165,46.86499917,25.01087167,69.9450225025,55.5887941675,299.08829165,1212.380833
8,15.75,288.568127725,-5.06992971375,-2.78632789,-0.3302610645,381.8076288,18.0508205325,3.50859946325,0.473518382,25.283718335,43.14025667,96.2365525725,16.7291400925,30.9062500025,33.45805417,46.0384049975,24.088141665,59.6900516675,54.59492917,222.6733917,1025.1059085
8,16.25,241.1708845,-6.481892432,-2.3098942615,-0.299917686,383.501029525,18.4235120175,3.46573670875,0.45119260325,24.6955883325,45.9519124975,96.225054785,15.16831171,31.2268750025,33.9183341675,44.6696491675,22.3426299975,48.8177575025,51.80459667,146.69185,817.573008325
8,16.75,176.0111856,-6.5448850645,-2.10210134325,-0.28390499275,383.293287625,19.65972889,3.29023848225,0.4372875115,23.9117766675,48.40652,96.223571085,13.5430838075,31.3849999975,34.224436665,42.7812483325,19.8893199975,37.09437167,46.974238335,67.6622674975,589.293233325
8,17.25,128.8659257,-8.23119149825,-1.73478015725,-0.2380532315,383.419674575,19.700277805,3.14952716075,0.403351048,22.874748335,50.830944165,96.22223734,12.119912075,31.6325,34.5563899975,41.1898600025,17.0645925,23.7905275,39.3381158325,-1.22940683325,370.618966675
8,17.75,65.458753495,-9.71463649675,-1.09727118625,-0.2085098585,382.693695975,19.2362504475,2.857284787,0.363726412,21.71528417,53.32266167,96.22055075,10.04394998,31.8889625,34.6199999975,39.5711750025,13.6089649975,11.94702533,27.921231665,-57.7383133325,175.22691165
8,18.25,15.071861895,-11.37583494,-0.0981298275,-0.16589013175,380.695103375,17.76234297,2.40586010225,0.281422689,20.4328216675,61.487655,96.21801501,7.0090434725,32.0250008325,34.6670833325,38.1663883325,7.07856761675,0.646975396,17.657438335,-89.579865835,35.335200665
8,18.75,-5.24455857325,-11.24768242,0.53417086675,-0.11723631375,379.467896575,17.1409330725,1.89970160575,0.21889266725,19.0470783325,66.6411183325,96.2329341625,4.842508755,32.130834165,34.681666665,36.68173833,-3.34822135,-12.028247165,9.56377125,-94.7904800025,1.116019475
8,19.25,-8.72429313475,-11.9856672,0.60489296,-0.07935021225,378.53512125,16.9620838575,1.455028827,0.15687199375,18.1736100025,70.675501665,96.2645195375,3.7325904725,32.3118750025,34.61520917,35.2278424975,-10.139855665,-21.7686699975,2.4226072595,-91.9083258325,0.063233315
8,19.75,-8.839915633,-11.317686,0.7064948215,-0.052941828,378.2469275,16.8113530225,1.11872865725,0.135390086,17.6093899975,73.71963417,96.2986266725,2.937319205,32.3550000025,34.48972417,33.9909758325,-13.809894165,-28.3719983325,-2.9077403915,-88.1011474975,0.046017968
8,20.25,-7.28670555625,-8.66412390675,0.54586820525,-0.04013786175,376.841993475,16.4561729775,0.74496969275,0.1038216245,17.2366816675,76.3951099975,96.331112145,2.5775810525,32.43625,34.2216649975,32.83430417,-15.997585835,-32.7807024975,-7.073088167,-85.4853425025,0.039396675
8,20.75,-7.77125918725,-7.6333970485,0.525483097,-0.02750356525,376.519738125,16.327951735,0.775780982,0.0850324575,16.80373917,78.228596665,96.356070595,2.2036027775,32.478958335,33.9672208325,31.8415308325,-17.2129300025,-35.4985391675,-10.16829275,-82.79554833,0.0384035
8,21.25,-6.06310371425,-7.79249087625,0.41741421975,-0.02224405975,375.378627,16.0327738425,0.52329930275,0.0719842455,16.6312274975,77.90110583,96.36881122,2.01177338,32.4581250025,33.64666917,30.91777833,-18.25079583,-37.273958335,-12.4700050025,-79.5208700025,0.03674816325
8,21.75,-6.820426298,-6.05341280275,0.1940810305,-0.02151709375,377.08583785,15.9447433675,0.51682689825,0.0765426515,16.6422208325,78.77460583,96.37083044,1.78453808,32.3712499975,33.3883341675,30.044583335,-18.7937949975,-38.358285835,-14.2575749975,-77.104386665,0.0410519785
8,22.25,-7.5019961475,-5.0724913895,0.057727589,-0.0163040065,377.1904959,15.89151186,0.51193069625,0.0673745315,16.425506665,79.695611665,96.369244325,1.7723528775,32.3343750025,33.08659833,29.34875,-19.05406167,-39.3562675,-15.6610033325,-75.992045,0.03972772975
8,22.75,-5.113311143,-5.2538195115,0.0508208195,-0.015180295,376.39520245,15.71109769,0.47173165425,0.064246046,16.33466583,77.258556665,96.366432885,1.595294045,32.24652917,32.74125,28.5997916675,-19.3651924975,-39.668015835,-16.803813335,-71.97725417,0.038403505
8,23.25,-8.0819343275,-9.11570984,0.17344828,-0.01918555725,378.722913575,15.7008397325,0.42099125175,0.07091835525,16.2234050025,76.3938525025,96.3685594575,1.5017454525,32.0300700025,32.48416667,27.9349966675,-19.530680835,-39.9967274975,-17.78224583,-69.4605225025,0.03807242475
8,23.75,-7.570554235,-4.31148737075,0.08689315775,-0.0196039225,377.7593527,15.748645435,0.47070828775,0.07865438125,16.2492374975,75.3415608325,96.3611802425,1.5460063725,32.0081266675,32.1786800025,27.6337499975,-18.4968900025,-39.3892775025,-18.4185325,-66.2757708325,0.03674816025
9,0.25,-11.27958968,-4.3337211225,0.151036104,-0.0271901445,382.19860555,11.32571072,0.6138261675,0.077413347,15.675798335,58.2015,96.269868745,2.097324725,28.610833335,28.14236,24.39736333,-13.52287833,-35.91176667,-17.79173833,-65.564601665,0.035754967
9,0.75,-17.745767625,-5.75141672,0.02023824725,-0.033295995,380.4989539,11.237431065,0.48431868,0.080456046,15.21681833,58.2015,96.270790345,1.808843095,28.509583335,27.894858335,24.242916665,-13.13656833,-35.409825,-17.65444,-63.682646665,0.0350928465
9,1.25,-20.617182065,-5.3512384425,0.2437037565,-0.0360024605,381.1584496,11.181685215,0.693651674,0.084237363,15.549895,58.2015,96.259406565,1.69863178,28.330833335,27.67875,23.93332833,-12.62958833,-35.234301665,-17.832321665,-64.054431665,0.0324443165
9,1.75,-15.999602935,-5.514956065,0.0729775945,-0.029563439,382.9745667,11.05487602,0.656297412,0.0798296255,15.16846333,58.2015,96.24229635,1.665072595,28.37604167,27.35291667,23.699448335,-12.43706833,-35.500965,-17.57115,-62.76302333,0.03310646
9,2.25,-18.1276729375,-4.815148865,0.1622776625,-0.029790651,383.89023085,10.65019717,0.647837436,0.092890455,15.609455,58.2015,96.245570505,1.647478975,28.26458333,27.105416665,23.618335,-12.40879,-35.348186665,-17.94738,-61.65559,0.03178221
9,2.75,-15.51963672,-4.823753125,-0.0461107145,-0.0323924665,386.163475725,10.53192595,0.625020936,0.085465528,15.773448335,57.830523335,96.24265826,1.64016469,28.103333335,26.8933,23.60111167,-12.12799167,-35.251476665,-18.229646665,-61.04706,0.0337685835
9,3.25,-19.935121215,-3.223014831,0.21381758275,-0.026889336,386.0422714,10.41090071,0.540962629,0.0987809395,15.711248335,57.91895,96.24477108,1.78976297,28.06354083,26.8933,23.58444333,-12.235875,-35.62447,-18.43810167,-60.887556665,0.030457953
9,3.75,-13.550773275,-2.311001815,-0.12635501325,-0.023469188,385.7068515,10.5936866525,0.529232483,0.0774142815,15.42214,57.015155,96.26467677,2.06757625,27.9856925025,26.8933,23.465,-12.16197167,-35.19113,-18.508526665,-61.484815,0.03774137
9,4.25,-13.785743925,-4.91241091825,0.17017168775,-0.0261406425,384.9369277,10.474803525,0.7476789745,0.0814331275,15.639423335,56.46337,96.27128809,1.86098677,27.830625,26.8933,23.28542167,-11.82513833,-34.94181,-18.45466,-60.651288335,0.03509286
9,4.75,-13.317611915,-6.1826333135,0.2345504025,-0.022352597,385.070895,10.71206302,0.688462061,0.0755590615,15.24081333,54.440858335,96.28358949,2.038508745,27.81,26.8933,23.171665,-11.43052667,-34.85964833,-18.591006665,-58.860025,0.0357549735
9,5.25,-18.60788208,-5.472849999,0.196651401,-0.0328843385,387.5619209,10.15746901,0.616101594,0.086499991,15.107716665,54.899736665,96.306099595,1.9115428,27.81,26.8933,22.954028335,-11.120725,-34.776761665,-18.936573335,-57.635296665,1.336838833
9,5.75,-13.22765834,-1.804975043,-0.0960007325,-0.029590674,386.7736343,10.41790377,0.631196757,0.0811781265,15.26350667,53.659968335,96.322817065,2.43143899,27.81,26.8933,22.76611333,-10.910096665,-34.344293335,-18.745508335,-45.549453335,25.6422825
9,6.25,-13.09923769,-0.261894953,-0.2262633165,-0.039456484,387.2236871,10.6603443025,0.5360677825,0.084939754,15.416536665,50.838731665,96.336304865,2.349495545,27.81,26.8933,22.743886665,-10.478553335,-33.15725167,-18.49335,-35.032308335,72.48196333
9,6.75,-6.572182193,0.678278344,-0.722157646,-0.052284244,388.78258555,11.7326769075,0.6652590145,0.094683212,15.62259667,50.516115,96.35460412,2.87440084,27.81,26.793333335,22.718333335,-9.4788558335,-30.965358335,-17.649741665,10.8808148,157.00747665
9,7.25,27.35122589,12.9186588375,-1.320563805,-0.0709730685,390.9039413,15.007584495,0.54738069,0.145086559,17.38892,46.154363335,96.38421856,4.64104605,27.81,26.66458833,22.74417,-8.350747333,-28.10868167,-16.62334333,92.39226383,404.30083335
9,7.75,59.87727453,10.53402484,-1.806703126,-0.0695036095,390.9697328,15.21290808,0.697528389,0.162207972,18.12105167,41.67596,96.37686891,5.384782335,27.81,26.53958333,23.069025,-6.884279833,-24.170043335,-14.786271665,211.97304635,733.37926665
9,8.25,92.271765685,15.4350977525,-2.190992897,-0.1044028965,391.974764775,14.781731675,0.9714951055,0.1883570945,19.14112833,38.956546665,96.393346545,7.909464575,27.81,26.42388833,23.456108335,-6.175614667,-21.114611665,-13.845685,317.9483833,939.3753333
9,8.75,133.92370985,17.3668928125,-2.105478744,-0.143063964,390.62037525,14.01646964,0.9542079385,0.231437535,19.93214167,37.997501665,96.402180745,9.150456205,27.81,26.409443335,23.853058335,-5.175805667,-13.32416667,-11.608563335,381.1530333,1131.6611665
9,9.25,151.391620325,14.35866576,-2.2922365485,-0.166984115,389.390204575,13.816240785,1.165158147,0.2671273165,20.9868025,37.236925835,96.372914385,10.1557755325,27.81,26.40276833,24.48063,-4.37661375,-1.3242055415,-8.510250167,439.260866675,1303.78666675
9,9.75,210.4433268,16.64717936,-2.02985665225,-0.2218201805,389.6269973,14.18445597,1.80327692875,0.32602067325,22.0271525025,38.2603649975,96.3663960675,10.341808005,27.81,26.4881250025,25.49492333,-3.417459333,14.680405835,-4.588126833,479.9944667,1443.570917
9,10.25,252.184296,10.80669949,-2.3758336425,-0.27203921525,389.8177086,14.63135849,2.159589592,0.379556772,22.58551,38.989105,96.3619586,11.595462945,27.81,26.519855,26.21778,-2.83647,31.359743335,-1.087174095,519.9061333,1568.0148335
9,10.75,269.713431375,11.4444945925,-2.604270929,-0.29245304,389.3902485,15.012700115,2.4608894935,0.41223959925,22.6324,37.40441,96.35127217,13.170406005,27.80528,26.4843025,27.667015,-1.29819185,46.2253175025,2.86164603925,532.398434975,1647.79874975
9,11.25,306.26828755,3.9812481075,-2.671460946,-0.323249159,389.053916925,14.9554603725,2.819664636,0.45520744325,22.81226333,36.9105,96.3319180925,13.4218458625,27.7943750025,26.46333333,29.53833333,0.322639793,58.03509333,7.887786,544.463,1702.515
9,11.75,298.4479577,11.9984324,-2.8868460255,-0.355504126,388.296603,15.0445867725,3.383705557,0.469650402,23.064606665,36.0200225,96.3059021475,13.58030997,27.80166667,26.7597883325,30.71,2.68057861675,65.2421883325,14.9585883325,544.463,1711.75
9,12.25,313.6844133,9.993561685,-2.766357467,-0.365990359,388.051302175,15.2144377125,3.20656742275,0.48726114,23.057055,38.5566391675,96.29578706,13.7953542875,27.81,26.8933,30.95875,4.88225716675,65.8477,20.212205,528.653241675,1711.75
9,12.75,339.378490575,9.04165314,-2.72392333775,-0.35646628675,387.841730375,15.80337009,3.41615614725,0.4935739365,22.78991,36.837116665,96.264462205,14.0003490925,27.81,26.8933,32.0014650025,7.65718,65.8477,24.747600835,509.7327333,1678.268192
9,13.25,330.8825931,6.787793643,-2.78941937,-0.362942793,387.529106125,15.6052407725,3.3194239915,0.51394997725,22.7833949975,36.7531608325,96.23756382,14.02742877,27.81,26.8933,32.465279165,8.74675666675,70.7171424975,33.7148866675,468.97505835,1622.2780835
9,13.75,313.228747675,2.65184672825,-2.71765323275,-0.35242769225,387.3104126,15.8265917075,3.405855188,0.482393192,22.7218675,36.7383699975,96.2099916075,13.61290929,27.81,26.8933,32.7034025025,13.90856667,70.7848083325,41.5377391675,416.787825025,1503.3819165
9,14.25,303.399253025,5.65807863,-2.62312514475,-0.344190319,386.979092225,15.6729745225,3.090505728,0.47005479025,22.779280835,37.1591125025,96.21234013,13.359838185,27.81,27.345764165,33.25381833,17.62225583,66.4056791675,46.323708335,363.437224975,1380.7593335
9,14.75,255.9382902,-0.223209347,-2.349420256,-0.32274618325,387.12494855,15.67944622,2.97846114125,0.457704107,22.6324,36.7415425025,96.19294619,13.4606030875,27.81,27.94770917,33.034376665,19.6880875025,65.8477,48.6469383325,298.04496665,1196.718367
9,15.25,216.2918144,-1.060015491,-2.0828660165,-0.304621595,386.6843025,15.309397845,3.00944704275,0.429004868,22.6324,38.2585108325,96.1806414375,12.963480155,27.81,28.48770833,32.7375,19.48074333,59.361989165,46.14901083,217.9821333,1009.372842
9,15.75,186.256180775,-1.353497792,-1.892547174,-0.280947968,386.22433865,15.739509,2.93204221025,0.4089723885,22.6324,39.989586665,96.171281985,12.614803525,27.81,28.886458335,32.44298833,17.1259441675,48.100014165,39.6314449975,147.8003717,819.824533325
9,16.25,162.1485435,-7.3535693525,-1.637160879,-0.2532595895,386.078769825,15.8480921025,2.75428341475,0.39571907,22.6324,43.2639608325,96.1695962875,11.630624575,27.91999333,29.043541665,31.960073335,14.61417583,37.24961667,31.722411665,67.86016833,581.062625
9,16.75,94.3500185325,-9.30796022925,-1.2452593875,-0.215577407,385.3906685,15.2111007825,2.53059464,0.35293456525,22.3919250025,44.3123500025,96.1704671325,10.6468512125,27.8891624975,29.1266666675,31.3185416675,11.4492306675,25.9761750025,18.4498066675,1.44899352475,350.6491333
9,17.25,38.210036135,-8.723564038,-0.59339650875,-0.17507371675,384.61536645,14.97344836,2.43855641725,0.3172249155,21.351065,48.468359165,96.168020795,9.07556088,28.0525,29.150416665,30.848125,8.14456033325,12.60131742,15.8253,-46.1709383325,151.664677475
9,17.75,9.31913306825,-11.7791666625,-0.1105824645,-0.132698802,383.51588465,14.619190055,1.88246123725,0.23780376625,20.1402583325,55.1325450025,96.175648575,7.50157978,28.19791667,29.1749999975,30.8104858325,4.31215401675,-0.30394480425,11.64010283,-85.5690550025,29.7057800025
9,18.25,-13.0856247575,-11.572581245,0.40874806525,-0.086011399,381.87722025,14.36126372,1.44255148125,0.1659892135,18.7512350025,58.2015,96.1820922975,5.2575466425,28.30666667,29.1418750025,30.71,-1.096868031,-11.4084447475,4.49954925025,-92.1956716675,0.82004696525
9,18.75,-17.97400195,-8.85988051,0.51859879725,-0.0672184275,382.1842795,13.468357,1.16746009475,0.12374099075,17.883075835,58.2015,96.2108105725,4.0204793725,28.3375000025,29.135,30.71,-5.78305933325,-20.5923524975,-0.64644872225,-89.0495441675,0.057274143
9,19.25,-14.30784268,-9.04949134575,0.546171508,-0.055109952,382.02741305,12.8458093625,0.9432890385,0.0983858245,17.2706166675,58.2015,96.2366449275,3.39617046,28.60916667,29.02166667,30.3139583325,-8.75302924975,-26.115350835,-4.85217200025,-84.96233,0.04634905525
9,19.75,-12.74574275,-8.761796855,0.48652324625,-0.043463192,382.41826885,12.508243345,0.7862282405,0.094841011,16.7294091675,58.2015,96.2687410225,3.05230618,28.4106250025,28.898333335,29.413333335,-10.6187225,-29.908815835,-7.853312833,-80.4693899975,0.04502474675
9,20.25,-13.87366336,-7.343906745,0.4559913925,-0.0306410505,381.6751908,12.65984991,0.73088868825,0.08224911925,16.50145333,58.2015,96.288216165,2.7339378175,28.72020833,28.39166667,28.90583333,-12.02905,-32.58232333,-10.53324833,-77.95314333,0.038403493
9,20.75,-14.0625436625,-8.735265306,0.366594725,-0.0392491895,382.2593195,12.12855217,0.723988846,0.09412593725,16.005115835,58.2015,96.28277294,2.4705589925,28.44291667,28.6062499975,27.8189575,-12.727416665,-34.838693335,-12.3211774975,-76.868723335,0.045024773
9,21.25,-15.3182015225,-7.400364961,0.230132131,-0.03161510825,383.57836425,12.4011924225,0.73120384875,0.083237722,16.0675049975,58.2015,96.288358875,2.1587400875,28.4325,28.4058325,27.26888917,-13.38847167,-36.3068249975,-14.1770450025,-72.32337583,0.0397277415
9,21.75,-12.2888977575,-7.852020568,0.2530864925,-0.0374916385,383.408868325,12.1110007875,0.60582821575,0.0834427975,15.8425058325,58.2015,96.3045040925,2.26528484,28.2743750025,28.25499333,26.8174299975,-13.6346349975,-37.2332425025,-15.158896665,-70.31682083,0.04105204
9,22.25,-13.058114625,-8.935643323,-0.019051003,-0.030518408,383.394884325,11.66235464,0.57390741625,0.077299588,15.7685999975,58.2015,96.3146816275,2.3037774825,28.231458335,28.1372941675,26.3102775025,-13.5926716675,-37.1956483325,-16.0113658325,-69.910265,0.03972774675
9,22.75,-14.3735678825,-6.6277706535,0.2124719845,-0.03839819425,383.518801825,11.3596642875,0.5551959885,0.08078679675,15.9414175025,58.2015,96.30704574,2.288754745,28.22145167,27.913333335,25.71485833,-13.4738824975,-36.38623917,-16.50163083,-67.3184533325,0.0334375365
9,23.25,-15.30343716,-5.95195089225,0.00611231575,-0.02574210425,382.2060094,11.38083836,0.5359777825,0.06357121375,15.28267917,58.2015,96.31065737,2.31281793,28.07875917,27.6745833325,25.2649374975,-13.55742833,-36.3841883325,-16.94035667,-65.6418316675,0.0344307285
9,23.75,-15.8468310825,-6.498612431,0.15844301225,-0.0342067495,385.133168375,11.38329331,0.609185476,0.071718028,15.6346475025,58.2015,96.29369387,2.1232933175,28.0133333325,27.48041667,24.8291675025,-13.5407775,-36.534869165,-17.2671291675,-64.78564583,0.03972775025
10,0.25,-32.147796895,-4.150955276,0.27951446275,-0.01972162625,388.022634,4.17505025275,0.8743485675,0.078021661,14.77984,22.370008335,96.3900645625,1.9704023625,25.317506665,24.486806665,20.334726665,-14.79511,-37.257795,-19.578098335,-74.981985,0.0304579565
10,0.75,-30.1294339975,-3.770981484,0.157513557,-0.02368233775,388.4091237,4.128933406,0.8368644835,0.09158593875,14.83996833,21.55669,96.38437648,2.0919900725,25.11236,24.200691665,20.19722,-14.439446665,-36.704643335,-19.872953335,-74.454288335,0.0311200765
10,1.25,-33.0655049125,-4.391063481,0.079055557,-0.02730850075,388.9065436,4.25672090825,0.729873812,0.0898296715,14.758595,21.352701665,96.37454304,2.128742895,25.10027167,23.980001665,19.873608335,-12.97649667,-36.817123335,-19.5179,-74.46101167,0.03112005
10,1.75,-28.9366145325,-2.44964973625,0.2527100675,-0.02104271975,389.666137675,4.17809156375,0.6692715085,0.08215694875,14.89283,20.580333335,96.371948705,2.2279631275,25.064445,23.778056665,19.526665,-12.716671665,-37.00096333,-19.740493335,-73.93908,0.03045794
10,2.25,-25.9856046175,-2.45321286775,0.158935419,-0.0221551365,390.1063334,3.647186472,0.74114145875,0.08519948475,14.580748335,20.984421665,96.351436695,2.26649987,24.92639,23.606385,19.2375,-11.785505,-37.156613335,-20.020481665,-75.85604,0.0297958135
10,2.75,-31.465066395,-1.2688493915,0.36297824875,-0.023109845,390.5034112,3.44319851375,0.9181943665,0.089546565,14.596481665,20.361255,96.33615678,2.665498655,24.78847,23.402775,18.987493335,-11.94683833,-37.289616665,-20.054476665,-73.464143335,0.0304579365
10,3.25,-28.9902754775,-1.90532639625,0.324479217,-0.0248214945,390.6751184,3.2946508395,0.70668525025,0.08406794375,14.423576665,20.852476665,96.3290421875,3.023162255,24.6825,23.224168335,18.77764167,-11.895201665,-37.48098333,-19.95829,-72.354795,0.03244434
10,3.75,-28.053610535,-1.342734668,0.03157084325,-0.0248839655,389.4466162,4.25125000825,0.72685112675,0.0938835,14.19404833,20.55817833,96.3358628825,2.73702044,24.656666665,22.984855,18.55806,-11.363015,-37.271908335,-19.91855,-71.642651665,0.026485173
10,4.25,-36.0191654075,-2.541060199,0.1254998355,-0.02024981075,388.9811771,3.994515273,0.66926734025,0.087142676,14.451481665,20.902265,96.3406473875,2.7609313975,24.479583335,22.813613335,18.2425,-11.68283,-37.216738335,-20.00314,-75.099753335,0.02913371
10,4.75,-26.5407961275,-0.99635220625,0.06033881675,-0.01911852675,389.4455704,3.918837144,0.8110192485,0.07914886025,14.275285,20.67677,96.353205345,2.6335192225,24.389443335,22.622221665,17.974023335,-11.580648335,-37.18044667,-20.13744,-76.495983335,0.0324443265
10,5.25,-28.1187576775,-1.626940709,0.09207933025,-0.0189494765,389.554709625,3.7044207425,0.70844545675,0.0726987455,13.976095,19.834143335,96.3583168975,2.64077013,24.229028335,22.51445,17.74527667,-11.695548335,-37.064985,-20.328718335,-73.155695,0.0503218435
10,5.75,-29.2738139825,-0.14040154875,0.22055642925,-0.02055641125,391.1015349,3.4335577425,0.68150665425,0.07914524,14.133183335,20.33139,96.3780940875,2.658602855,24.200416665,22.410973335,17.54458167,-11.786245,-36.92836333,-20.24364667,-68.272135,5.888314883
10,6.25,-25.425019045,0.590557497,-0.051107509,-0.02506000675,391.4089418,4.06591947675,0.5387452495,0.082908968,14.42871833,21.030048335,96.399221945,2.963214535,24.15375,22.18541667,17.35874833,-11.25173,-36.760396665,-20.184936665,-56.278408335,46.70396
10,6.75,-17.30451601,1.754094297,-0.324500498,-0.02740011775,391.1074522,5.236271,0.533676977,0.08756929725,14.231928335,21.531805,96.41936841,3.311219235,23.99930667,21.974168335,17.281523335,-10.775465,-35.493831665,-19.81829,-47.001813335,83.051566665
10,7.25,-17.24140963,5.966198865,-0.733335392,-0.0219759595,391.6105789,7.2081206365,0.67390033625,0.07722295675,14.819145,22.19561,96.463427345,3.45513855,23.849166665,21.83527667,17.279723335,-10.2520373315,-33.594263335,-19.01669667,-13.189660665,167.67767335
10,7.75,30.376449575,16.0324534475,-1.89822183375,-0.064578526,395.910048525,7.191230385,0.40565168725,0.12478590375,16.550826665,20.773668335,96.49012689,7.35066297,23.700032185,21.680577915,17.30124833,-9.365032667,-31.296041665,-17.961191665,144.809128,552.4471
10,8.25,64.45781825,17.52674769,-2.073685365,-0.066751109,396.8241878,7.27614973775,0.56218805925,0.13580024375,17.811,18.183165,96.496433965,10.31640642,23.670833335,21.53777833,17.60694333,-8.218434,-27.705976665,-16.44064833,241.7246467,795.91605
10,8.75,109.9763789,22.19517265,-2.173576496,-0.101028293,397.5081125,6.9579522055,0.87618664,0.178511507,19.328600835,14.9943874975,96.49402571,12.66259995,23.6609725025,21.4365324975,18.0986875,-6.52655524975,-21.1861383325,-13.900736665,325.526424975,989.3878083
10,9.25,130.4761815,24.1604589,-2.12817176,-0.1342844625,396.6319758,6.992742717,1.0087505565,0.2108801035,20.284365,14.72676,96.4882957725,14.84817765,23.589161665,21.44361667,18.985693335,-5.060852,-8.10881845,-10.538252,381.5158833,1145.6643335
10,9.75,168.8526719,22.535472035,-2.169955693,-0.173512978,396.2319267,7.435462134,0.986478233,0.216902129,21.6075975025,14.97658667,96.46913941,16.46413077,23.4912508325,21.40290667,19.830275835,-3.92298975,9.6240565,-5.606305,424.295375,1293.037333
10,10.25,181.58229405,18.3907969125,-2.315103671,-0.20796379575,394.51217425,7.2755669285,1.64080896075,0.27180679725,22.5024225025,14.7342099975,96.4508378825,14.98291827,23.3333991675,21.39764083,20.6999983325,-2.86909674975,30.9735149975,0.2277552465,448.02851665,1375.08441675
