DOY2,HR2,H,LE,FC,TAU,CO2,H2O,WS,USTAR,TA,RH,PA,VPD,TS_1_1_1,TS_1_2_1,TS_1_3_1,G_1_1_1,G_1_2_1,G_1_3_1,NETRAD,PPFD_IN
1,0.25,-17.66545912,1.030995442,0.512296358,-0.018801853,404.8851186,9.2833219725,1.1806312355,0.125728642,10.1351835,79.386125,97.02674446,2.3970249,13.331521665,12.585556665,10.349306685,-7.798765,-27.254766665,-17.70154833,-62.070548335,0.0357774765
1,0.75,-22.97682358,2.144333426,1.544069103,-0.0210244165,403.9961008,9.101414831,1.2353584545,0.132650933,10.0278884835,77.378355,97.028436625,2.44024664,13.286939985,12.393749985,10.262361665,-7.9254235,-27.29560667,-18.031618335,-61.258615,0.03775
1,1.25,-20.47400881,3.1255092995,1.257121154,-0.018735463,404.2034273,9.160027662,1.2608623675,0.1251035595,9.9812631665,78.26146667,97.02959466,2.35863601,13.187775015,12.210408335,10.175278315,-8.0735131665,-27.632178335,-18.125126665,-60.348118335,0.035092837
1,1.75,-19.143657355,2.077102491,1.3575539865,-0.0246433365,404.41760465,8.9344055605,1.371320675,0.1435297275,10.038621,77.316426665,97.02385712,2.359573595,13.079031665,12.07958667,10.094585515,-8.105459667,-27.13958333,-18.112795,-59.61462,0.03376535
1,2.25,-22.33032737,2.57228647,1.187709289,-0.0219437585,404.20921685,8.7613865195,1.343474131,0.135769509,9.776570833,76.06107667,96.989583025,2.54095399,12.98152335,11.956805,9.8868033165,-8.0390206665,-27.23051,-18.13513167,-58.689486665,0.0324532165
1,2.75,-16.58928836,4.4757990165,1.143374476,-0.0240810535,404.767652,8.676393249,1.2393026665,0.1422946935,9.7947835,77.977936665,96.975621715,2.568764865,12.943888335,11.829718335,9.6836118335,-8.7730735,-27.68101833,-18.540203335,-59.76453333,0.03577749
1,3.25,-12.45502406,2.099975859,0.626762132,-0.018598865,403.2309114,8.605298143,1.1695885605,0.124836133,9.7323933,78.463188335,96.946618905,2.45274828,12.8677817,11.67542165,9.53527735,-9.100803,-28.17442833,-18.602715,-57.856921665,0.0318
1,3.75,-15.705565985,5.72248857,1.045470368,-0.025910613,404.9280017,8.636485128,1.0769101875,0.1476004465,9.8629980165,78.095901665,96.938224475,2.39575771,12.78487,11.597640015,9.385415,-8.622214333,-27.72802667,-18.603565,-57.872281665,0.0357774835
1,4.25,-18.72150458,5.987265971,1.0365594855,-0.021294084,404.0208854,8.5374639855,1.0617544995,0.135888506,9.5544991665,76.98347167,96.90976589,2.4536493,12.711528335,11.50584,9.2377781665,-8.300196,-27.8036,-18.467361665,-59.377876665,0.03375322
1,4.75,-15.624209975,4.578451995,0.547478322,-0.025890043,403.77036705,8.3041350615,1.0370661145,0.1465116025,9.608643,78.54705,96.89951051,2.517112495,12.685691665,11.354166665,9.09236185,-8.376644,-28.154228335,-18.94596,-60.223148335,0.03047896
1,5.25,-18.737966375,2.913841595,0.4006348475,-0.0205371,404.9972443,8.427373357,1.1725144575,0.1316839865,9.63514235,79.148448335,96.928305745,2.33686707,12.628745015,11.27999835,9.0697231665,-8.3287525,-27.79165833,-18.645568335,-58.470488335,0.0371
1,5.75,-14.371725685,5.660268225,0.7019994915,-0.01980612,404.6484714,8.2000681245,1.2966321985,0.1282720265,9.39551365,79.6514,96.963607365,2.129497705,12.542495,11.21722335,8.9437509835,-8.5055655,-27.37837167,-18.645041665,-60.540715,0.0337532435
1,6.25,-18.268453545,5.806815472,0.460801488,-0.019408984,404.1743112,8.1575738165,1.249151119,0.1280148695,9.31820885,80.49255833,96.99154451,2.111023685,12.44346833,11.1607,8.8244445,-8.8332935,-28.041473335,-18.57962167,-61.244945,0.1052785635
1,6.75,-17.35687776,5.2368938355,0.8273441975,-0.021431191,404.055188,8.082126771,1.050519728,0.133923285,9.4170286665,78.23823167,97.016337985,2.1968359,12.3811117,11.114723335,8.61944565,-8.9371076665,-27.307598335,-18.510685,-55.963235,9.7975327515
1,7.25,-15.04812951,7.3899848795,0.5660393915,-0.020977326,403.4187214,8.2202366845,1.270045217,0.132979562,9.79766535,78.2006,97.02119934,2.206393595,12.35069165,11.02916665,8.57958435,-8.467737,-26.67156833,-17.969688335,-40.718903335,54.873318335
1,7.75,-12.57411891,8.190032517,0.021088865,-0.018799806,403.2378483,8.49735771,1.2286582775,0.1250402385,9.7717406835,76.88032,97.0255045,2.46500619,12.325975,10.90194165,8.59000165,-7.5364016665,-23.439736665,-16.831481665,-32.202915,89.31531333
1,8.25,-5.192714184,16.020630995,-0.315464804,-0.024421352,402.9419248,8.646205654,1.062749891,0.141546215,10.053439,78.03251667,97.05797986,2.70706798,12.2402767,10.83999667,8.737501,-6.331224333,-20.30883667,-15.34504,-12.18681113,123.0356
1,8.75,5.725071231,30.89764284,-2.0980349935,-0.0287139785,405.43281975,10.357450755,0.9336661765,0.1562329045,10.771000665,70.513323335,97.164096655,4.20728045,12.110001685,10.748753335,8.89430565,-5.3936691665,-17.64551333,-13.737685,114.21809335,469.6205833
1,9.25,45.56493581,37.21677835,-2.703042942,-0.034757166,407.62504255,10.96185221,1.0327760395,0.177164109,11.832065,65.87120667,97.17829263,6.38933942,12.078611685,10.81138772,9.2244439835,-3.6474225,-10.85544583,-8.971480667,214.543,755.0263
1,9.75,71.59269472,62.516801475,-3.5090437125,-0.0459388405,406.4171446,11.24916199,0.89039202,0.203898493,12.49219835,61.339513335,97.15207617,7.635019315,12.02832833,10.79375835,9.6150006835,-2.2764023335,2.093575535,-0.349881878,312.6966333,966.2544333
1,10.25,75.38964866,66.025035935,-3.505012937,-0.051250931,405.0919919,10.827467995,1.24708361,0.213171382,13.324803335,59.52174167,97.1329246,7.99663443,11.993341665,10.77223,10.362779,-0.3420341115,19.299977665,6.1308375,303.5834667,1038.734967
1,10.75,92.90766405,83.54034608,-3.674985224,-0.06879893,404.2260125,10.40103889,1.4860715235,0.24667031,13.817195,58.254661665,97.110569675,8.85759333,11.968891665,10.836531685,11.198335,0.2041799615,33.47621833,14.289023835,355.82618335,1160.9638335
1,11.25,104.0467846,104.9260677,-3.6459042505,-0.0829137165,403.6056532,10.840279595,1.756939414,0.2664447715,14.434316665,57.00170333,97.063500945,9.04701924,11.96555665,11.0079167,11.82625165,1.780794783,47.947608335,24.87408,398.4476,1237.276333
1,11.75,113.68117655,90.70549586,-3.278235741,-0.0815558085,403.0657224,10.876449455,1.897213817,0.265371719,15.137128315,54.69198,97.017042065,9.32464904,11.937505,11.177223315,12.68222165,3.6441431665,61.322613335,36.538035,402.5461333,1276.693
1,12.25,124.0921084,69.59882938,-3.291530823,-0.098617727,402.8559249,11.405924735,2.022644669,0.3038341595,15.718075,54.00063667,96.96059204,9.53554549,11.959165,11.418328335,13.801943315,4.541326333,66.66826333,43.66544,392.88673335,1244.30735
1,12.75,119.9846694,85.32781361,-2.991756007,-0.105655687,402.2724375,11.0725734,2.0307989025,0.3081348035,15.8246017,54.05312667,96.934415745,10.197613735,12.04153165,11.691665,15.11194833,6.538119167,68.34616333,39.47887333,351.61038335,1154.4756
1,13.25,117.10734055,81.3622978,-2.831568295,-0.1181404635,402.5222639,11.18168609,2.537290102,0.321976083,15.95908835,55.282528335,96.88882821,9.43675333,12.10403335,12.026386685,16.177785,8.7333241665,64.74065333,38.05794667,303.6098333,1067.549333
1,13.75,109.56881975,81.797539215,-2.9798624775,-0.130705656,402.51954965,11.309747745,2.5563471735,0.3391465845,15.77510335,58.455823335,96.874908135,8.89603192,12.31347835,12.505001685,17.193185,11.004635,58.44415667,38.08282667,248.6765667,908.4932667
1,14.25,85.64732269,70.03695212,-2.630990025,-0.1113799735,402.3261842,11.12468295,2.365170372,0.3134270275,15.9312,59.94301167,96.871919385,8.48730889,12.385555,12.879305,17.7002767,12.67240333,54.52012,33.57842667,214.5861667,787.4494333
1,14.75,81.44076056,56.56916671,-2.4035496915,-0.136250384,403.4173349,11.39571306,2.484824261,0.351726795,15.5991533,59.85497,96.858351825,8.540841345,12.60819665,13.356948335,18.04472,13.036195,48.57284667,29.845313335,190.8562367,766.4598667
1,15.25,54.760398455,43.504941345,-1.598708553,-0.112470538,401.77106795,11.035779685,2.424833161,0.312906743,15.6605283,62.047488335,96.87057021,7.77126544,12.8368067,13.723615,17.85056,12.6093,42.52539333,22.14185333,107.99683165,547.8128333
1,15.75,34.28622894,36.73280087,-1.2119113275,-0.089821683,401.3976296,11.30198842,2.3654008955,0.278373147,15.21513165,64.654938335,96.874622355,7.137695385,12.983191665,14.028608335,17.32694,12.94194167,34.420906665,16.43881,48.479348335,363.98715
1,16.25,15.61863096,28.40919451,-0.744513757,-0.069136685,401.4652497,11.372103405,2.094548986,0.242758459,14.61897333,67.41753,96.8681575,6.033787165,13.216110015,14.250696665,16.585,10.21997333,21.46523333,11.483956835,2.2280564835,220.0064017
1,16.75,-3.904518009,8.518980885,-0.0645028085,-0.045947145,402.05847125,10.6403339,1.570994496,0.199512084,13.4324167,70.604115,96.87725817,4.77399808,13.385411665,14.404723315,15.88193665,6.3519755,9.498932,6.3889008335,-43.6572,62.395771665
1,17.25,-16.68749754,6.27038395,1.060831044,-0.027103512,401.24671595,10.003176315,1.407692087,0.151097036,12.773075,72.825531665,96.89260409,4.056252035,13.47346335,14.398891685,15.13888665,1.82495475,-1.800165085,0.451188758,-72.825396665,5.3745071
1,17.75,-16.61714498,3.245602416,1.542565635,-0.022222122,401.6697554,10.20167249,1.5526791655,0.138939687,12.25930165,75.38891333,96.92881952,3.407519265,13.596381665,14.34583,14.482225,-0.60654727,-9.185907,-3.670069,-69.268765,0.06951859
1,18.25,-18.3415192,3.7375364975,1.510629195,-0.014231822,401.7627863,10.25713359,1.509780225,0.110464352,11.93688165,76.316001665,96.956380385,3.02632436,13.71499833,14.288891665,13.799581665,-2.303373667,-15.161283335,-6.6032151665,-65.05753167,0.0397517465
1,18.75,-20.63628601,3.370418819,1.473664026,-0.0179504795,402.55917145,10.1488745,1.4287063915,0.123160332,11.852966685,78.026065,96.957814775,2.54748064,13.7437483,14.185001665,13.424168335,-3.965991667,-18.192785,-9.5554423335,-64.733713335,0.0383896335
1,19.25,-21.94302591,0.8069657,1.378587018,-0.0145480965,402.0626164,10.238134655,1.6353756005,0.1111254745,11.542695,79.925205,96.960199795,2.40660456,13.7533283,13.997221685,12.995416685,-4.8323571665,-21.298133335,-11.626323335,-68.759523335,0.0384035235
1,19.75,-21.9725352,0.827271529,1.4189324895,-0.019979382,402.2299864,10.057848809,1.5427734205,0.129763705,11.494831685,80.25609,96.982829475,2.46271633,13.743885,13.856948315,12.613613335,-5.861401,-23.06281,-13.085095,-67.00519833,0.0358
1,20.25,-19.99188766,1.2688102695,1.566756296,-0.0181515835,403.1456441,9.9692621765,1.5000253955,0.1240075015,11.413943315,80.792815,97.02195112,2.302497945,13.72347,13.79069835,12.44597,-6.5683136665,-24.039586665,-13.99005833,-64.841178335,0.0318
1,20.75,-17.9863978,1.126024497,0.9931386575,-0.0211344335,403.565391,10.08667989,1.440665213,0.1338388045,11.15618665,81.47757833,97.0578699,2.40149462,13.707775,13.581525,12.169025,-6.5844846665,-24.770858335,-14.73583167,-57.23161,0.03375
1,21.25,-17.83347158,2.504929349,1.330801507,-0.020958124,402.68382645,10.09555211,1.56722326,0.1326523465,10.930678335,80.79168833,97.053653185,2.430723995,13.58861167,13.432086665,11.916945,-7.2319693335,-23.42147167,-14.88789167,-61.775998335,0.0344153565
1,21.75,-14.94781725,2.812513415,1.1839361715,-0.0179685035,403.7670866,9.960817256,1.2365051865,0.123123843,10.804153335,82.28925167,97.064906545,2.20952331,13.478883335,13.279723335,11.69527835,-7.394249667,-24.170748335,-15.43548667,-62.57329333,0.037079233
1,22.25,-20.834392825,0.914337414,1.5364125975,-0.0179495895,403.2920345,9.8380600545,1.4041927555,0.1230685405,10.680141,80.129846665,97.07478304,2.37136165,13.462225,13.134441665,11.399998315,-7.587517,-25.417266665,-15.886786665,-61.82037333,0.0337686
1,22.75,-19.64242162,1.7390582135,0.985530456,-0.022409772,403.0453669,9.526789161,1.399282092,0.1371479675,10.750428315,81.397778335,97.071666385,2.125356375,13.44166835,12.962081665,11.121944985,-7.464195167,-25.723535,-16.11038,-63.285683335,0.0370792335
1,23.25,-19.13384931,-0.1136833075,1.035655564,-0.0209162865,404.0155313,9.4229151155,1.2302794795,0.133128709,10.552832165,79.80272,97.0593752,2.282899045,13.43597165,12.788475,10.78805335,-7.6012575,-26.53261167,-16.262386665,-62.141303335,0.0351
1,23.75,-19.34086612,3.303433755,1.059686251,-0.0179359505,403.6770793,9.4291288705,1.120862583,0.1232012435,10.41378985,80.17337833,97.06875023,2.3661091,13.4125,12.67903,10.594160015,-7.8955685,-27.403066665,-17.13767167,-63.623163335,0.0350928565
2,0.25,-18.722256615,4.1627501945,1.071710211,-0.020211224,401.90356755,5.915729476,1.2289486345,0.130159567,12.971948335,61.65489833,96.91504332,6.96188833,14.985558335,14.280838335,12.43403,-9.4812291665,-32.933861665,-18.310983335,-70.55991833,0.0377517535
2,0.75,-16.171733775,3.210974055,1.1081976415,-0.016577632,402.3422763,6.101454849,1.372516955,0.1191929795,12.77738,59.126495,96.911951065,6.220022205,14.914994985,14.112775,12.353746665,-9.505487333,-32.829591665,-18.253158335,-70.23586833,0.03645
2,1.25,-24.456601015,6.015607329,1.646012945,-0.016617648,402.6661579,5.95735126,1.3554884235,0.1191726555,12.696898335,54.52379833,96.88985074,7.18296316,14.76860665,13.971528335,12.132639985,-9.6916861665,-33.347805,-18.271655,-69.322006665,0.0397
2,1.75,-22.64990478,2.8887374105,1.2759670535,-0.0179784955,402.4869252,5.902968065,1.263074921,0.1231033905,12.495941665,55.75080667,96.86725517,6.32326248,14.69291833,13.847915,11.98903167,-9.7069538335,-33.075298335,-18.383975,-69.825221665,0.0397138535
2,2.25,-18.624843295,6.078632311,0.748579902,-0.019288172,402.9446052,5.649515945,1.0590219765,0.127574893,12.636585,64.79454667,96.85044741,6.980504795,14.67347333,13.753333335,11.914168335,-9.468508667,-33.10858,-18.403368335,-69.85785333,0.0390517565
2,2.75,-26.58632554,6.403608725,1.375402829,-0.020749236,402.5107909,5.7213900115,1.2547503835,0.1318060585,12.494469985,62.635435,96.84212045,7.08731935,14.571251665,13.635971665,11.829726665,-9.7201846665,-33.453905,-18.59866667,-68.573156665,0.0384
2,3.25,-20.50166884,6.011188805,1.388742621,-0.0218930555,402.3168701,5.771270084,1.156735372,0.1360984425,12.62085167,60.617283335,96.841386305,7.053267115,14.458898335,13.521116665,11.75083333,-9.6237771665,-33.290911665,-18.75442167,-68.699083335,0.0403760165
2,3.75,-14.69405724,5.870453881,1.139291824,-0.014304671,402.7072393,5.440863767,0.9809884235,0.109827639,12.52359165,59.905645,96.82667508,6.78097958,14.372368335,13.44250167,11.720143335,-9.32777,-32.900208335,-18.795586665,-67.725971665,0.03775
2,4.25,-23.158852875,6.914868297,1.361504966,-0.0180589205,402.35173785,5.473784258,1.1421077195,0.123487085,12.6522,55.47549667,96.81290371,6.68607927,14.351246685,13.34847,11.56542165,-9.2606523335,-32.364281665,-18.930728335,-67.97614833,0.03577749
2,4.75,-20.34549656,5.4778429515,1.0897939245,-0.019280436,402.5085784,5.191342728,1.0572580915,0.128127161,12.29697833,56.72596,96.824888335,6.984176275,14.28263335,13.213193315,11.369725,-9.355476333,-32.137695,-18.7648,-68.131585,0.03511537
2,5.25,-14.591034105,6.9084623905,1.032448314,-0.021358012,402.2026052,5.095757414,1.065636347,0.1341508165,11.9389367,57.024866665,96.839253975,6.16529333,14.197908335,13.042226685,11.2204233,-9.5627101665,-31.389673335,-18.69975667,-66.39403,0.0404138935
2,5.75,-14.306036505,6.0752292785,0.785093056,-0.0241825425,402.9579426,5.099777572,1.1294590495,0.142994786,12.229868335,58.856805,96.84291665,6.800649665,14.097928335,12.93791833,11.045835,-9.614673667,-31.57076333,-18.680465,-68.38774833,0.0423881435
2,6.25,-17.247262365,6.387783652,0.998135985,-0.0162847525,403.4556462,5.0244161405,1.0847367955,0.116779872,11.937635,56.94318,96.86532714,6.437258345,14.09625,12.807498335,10.8219483,-9.644584,-31.223813335,-18.798055,-66.24699,1.75464283
2,6.75,-20.823206685,5.994341182,0.574290916,-0.0210177005,402.5922167,5.0922005905,1.3170054935,0.132884852,12.187285,54.89283,96.890779685,6.658590785,14.040974985,12.762225,10.68250665,-9.567911667,-31.225805,-18.848183335,-58.002521665,32.707210165
2,7.25,-16.47106358,16.695058445,-0.082719671,-0.022875764,401.4871857,6.164431325,1.0930106405,0.1396962665,12.41238,54.148376665,96.91134249,6.091080885,13.950971665,12.70917,10.59277165,-8.792524833,-29.894961665,-18.551225,-45.704641665,79.301921665
2,7.75,-13.289189105,13.94618891,-0.613781211,-0.0183095835,400.8485183,6.746698759,1.0468678345,0.12499388,12.01835167,53.364363335,96.93942996,5.24030982,13.80750667,12.661943335,10.59402165,-8.0456363335,-28.015165,-17.687948335,-19.55676333,113.782905
2,8.25,5.7144177745,37.52893398,-2.6478925645,-0.0220958295,402.11881835,9.73017741,0.924241857,0.138591909,12.990103335,52.759555,97.00006396,7.06307717,13.793478335,12.60973,10.59693835,-7.3695405,-25.096148335,-16.571156665,67.7595545,356.56736665
2,8.75,34.97007936,53.015528,-4.048222783,-0.027593373,403.9791639,9.827456219,0.737708874,0.161415,14.69538667,46.84597,97.0149618,12.13017435,13.71944,12.72917,10.8927833,-6.326475333,-21.44919333,-14.68259667,241.6054333,796.52055
2,9.25,62.413150135,79.261073505,-5.381097283,-0.0467888515,402.6577285,9.7241559765,1.071080305,0.2029844655,15.969125,40.88243333,97.025932785,14.353945495,13.66236,12.61735835,11.362495015,-4.6769185,-10.372352815,-10.385078,319.9667333,989.97271665
2,9.75,92.010459735,98.671001755,-5.9000392965,-0.04329678,402.1653095,9.955765917,1.0654220535,0.198244265,17.83162835,39.044748335,97.026381175,15.634804705,13.59569,12.657781685,12.01069665,-3.0339206665,11.3787855,-3.608769027,383.0440167,1163.2938335
2,10.25,102.4957331,122.7036197,-6.0097179275,-0.0587261995,401.34403295,9.200543041,1.39806196,0.233023052,18.98145667,35.786576665,97.02178391,17.12277075,13.572914985,12.728335,12.87861665,-1.2838868,34.2713,4.82518615,441.60110835,1303.6845
2,10.75,117.0165639,127.3770495,-5.6162520595,-0.0794174145,399.9875065,8.932859876,1.4977030015,0.2634036065,19.67689333,32.30397667,97.000621015,17.51254044,13.529999985,12.762779985,13.752915,0.492045305,57.055558335,14.4890015,474.70235,1394.2731665
2,11.25,128.84368155,122.6643096,-5.527453867,-0.1118696725,398.4751777,8.4075841015,1.931469259,0.310176531,20.31348333,30.9264,96.969248705,18.88021189,13.490693335,12.973193335,14.52347335,2.1621833335,71.696098335,25.612375,492.00835,1478.5535
2,11.75,142.3560044,120.3247521,-5.491861203,-0.120999993,398.59935155,8.1268083305,2.348638267,0.328214016,20.75396667,33.360675,96.92286791,17.83663774,13.560835015,13.211391665,15.32943667,3.332925333,84.239825,39.406345,500.24865,1514.3011
2,12.25,150.2323101,125.7122504,-5.2271584045,-0.130022933,398.69305005,8.803990526,2.699018706,0.341507713,20.760648335,36.39577667,96.880966715,17.54687094,13.70069333,13.42138667,16.628746685,4.7479373335,92.723298335,50.668876665,493.4836167,1511.1206665
2,12.75,151.754738,140.4884082,-5.09464617,-0.154610875,398.5236147,9.198774425,3.0629590045,0.3703675,20.2402467,38.21465,96.84112824,16.03480895,13.792645,13.733329985,18.62930667,5.8421195,98.52460833,60.01048333,478.22635,1490.853
2,13.25,143.4395021,130.4037495,-5.37139692,-0.150620307,398.6681286,8.90377339,2.708371117,0.3648775195,20.6385667,40.14718667,96.808112315,17.01651029,13.852084985,14.009161665,20.417776665,9.503787833,99.066095,66.11395,442.17178335,1421.440333
2,13.75,140.8041641,125.2760965,-5.193289896,-0.14940407,398.15646385,8.79321277,2.800820539,0.360556448,20.55075,37.507505,96.78876089,16.66251002,13.980971685,14.414441665,21.669865015,15.01156333,99.05156333,68.558916665,393.7761,1306.5635
2,14.25,135.6762718,125.1644646,-4.916035851,-0.171075521,397.5662029,8.799785603,2.9701551335,0.390747461,20.544661685,40.411321665,96.77283734,16.44809561,14.085835,15.03445,22.32943833,19.89182333,93.63178,69.85308,342.08268335,1192.397333
2,14.75,114.1899373,84.471199245,-4.776158073,-0.147942556,397.8676746,8.7605960935,2.853770355,0.3668100035,20.490698335,43.422781665,96.759246105,17.70129938,14.367085,15.537495,22.37138667,23.22022167,83.888878335,68.65643333,272.91971665,1027.1226335
2,15.25,93.49706007,82.05253346,-4.0321426125,-0.1410370115,398.5833249,8.3747684905,2.848252523,0.352459548,19.927243335,44.88291,96.76136715,16.892360575,14.56541833,16.078751685,21.91305667,24.763585,73.448503335,60.684096665,201.71645,841.17003335
2,15.75,72.69315774,72.56146295,-3.3493244875,-0.101199907,399.5989951,8.80647043,2.543577293,0.2960963905,19.718335015,47.150423335,96.77037831,16.25864344,14.784583335,16.525835015,21.384165,24.01386333,61.839191665,42.844441665,124.60788335,645.38885
2,16.25,36.35389909,42.23318008,-2.358166538,-0.09689304,400.18576985,8.8816625375,2.434169476,0.289857344,19.199586685,49.43916,96.778874355,15.93256266,15.00889333,16.833191665,20.536111665,22.54678333,45.901955,28.522751665,47.314589835,436.68173335
2,16.75,15.74616633,31.496116965,-1.364937364,-0.0702120275,400.2256403,8.751207024,2.44389672,0.246378572,18.25540165,53.004575,96.79108486,11.77897381,15.302216665,16.943195,19.53639,19.09013,30.146556665,18.519488335,-11.59460783,231.6174833
2,17.25,-4.141530806,18.819316445,-0.037075359,-0.0515148585,399.72920135,10.39536201,1.8600003205,0.219440599,16.793506665,58.730976665,96.80818967,9.612761715,15.422216665,17.018893335,18.675556665,13.265769665,13.026167665,9.9628854985,-64.450441665,60.84837
2,17.75,-16.75550023,4.666595205,1.492668118,-0.024075122,400.1978577,6.6637817825,1.622902372,0.145180811,15.913775,58.375486665,96.834077575,10.520906165,15.55278333,17.002785,17.73014167,6.2977498335,-3.0711009435,3.0638117655,-83.31736667,3.5284861735
2,18.25,-21.53219899,2.8820178725,1.8682921295,-0.021351633,400.9955207,6.2333151265,1.445321455,0.135797275,14.89573835,56.57644667,96.849200205,9.79662662,15.62360833,16.918891665,16.84971667,1.04493173,-13.579864665,-2.973784657,-83.46560167,0.0615700565
2,18.75,-21.20041962,0.810504477,1.5920087115,-0.016700517,401.7174513,5.719374206,1.507440484,0.118818238,14.399093335,56.74885333,96.87698873,9.397742305,15.70819167,16.82236167,16.087083335,-3.4212476665,-19.37896,-7.007439667,-79.496643335,0.04965
2,19.25,-19.64044208,5.2735213065,1.3836279315,-0.018220576,402.2764289,5.6008285815,1.581897522,0.1249499645,13.80038,61.9429,96.901269585,7.98848532,15.751251665,16.605835,15.481945,-5.6725435,-23.562318335,-9.6150053335,-76.81908,0.04565
2,19.75,-22.21338147,4.562841193,1.6881584345,-0.015303625,401.3709767,5.67746264,1.602031257,0.1142316385,13.374754985,65.32893,96.91833035,7.52883937,15.752501665,16.37527,14.946248335,-6.7827271665,-26.657415,-11.655735,-74.577823335,0.0423759865
2,20.25,-28.67787475,6.2147640195,1.716048964,-0.018390057,402.0327243,5.523862614,1.8904257845,0.125154847,13.763415,61.59037,96.92891518,7.94262533,15.700415,16.132085,14.50305167,-7.073024167,-28.981405,-12.399196665,-74.633705,0.0423762735
2,20.75,-22.0605909,4.110764676,1.872648222,-0.016436219,401.79339225,5.6887285325,1.5025439515,0.118614944,13.606293315,64.60169,96.92727497,8.326466565,15.657503315,15.877223335,14.05208333,-6.9855508335,-30.28837,-13.506133335,-76.120845,0.04175
2,21.25,-25.01757073,1.818939711,1.6070195935,-0.019036177,401.66889495,5.689553808,1.529461568,0.126137157,13.5076317,62.86182667,96.935813875,7.855654325,15.60250165,15.62945,13.795833335,-7.2057891665,-30.96141333,-14.805036665,-74.529125,0.04435025
2,21.75,-24.64940238,1.8062888825,1.560706615,-0.0184397145,401.457891,5.500063318,1.4990193285,0.125163601,13.242896685,61.284435,96.948341045,8.368840555,15.563606685,15.385831665,13.541666665,-7.791528,-31.654175,-15.41825333,-74.14583,0.04171414
2,22.25,-27.333267745,1.2474785685,1.412838777,-0.01348624,402.1552757,5.5940321335,1.46288789,0.107031176,12.9923167,62.805211665,96.9494479,8.676454325,15.494863335,15.148055,13.302081665,-8.310149,-32.032836665,-16.191125,-73.307275,0.0390517635
2,22.75,-21.46231659,-1.004891356,1.5262836285,-0.020694413,402.6087902,5.6177788685,1.335012525,0.1319209195,13.132486665,61.430013335,96.93986411,7.937870975,15.39,14.88028,12.979168335,-8.6387826665,-32.10382333,-16.9397,-71.154293335,0.03645
2,23.25,-19.53571132,2.7984361075,1.386323666,-0.018876884,402.278438,5.602864584,1.2046833825,0.125437248,12.90094167,61.19256,96.937665145,7.8772951,15.314439985,14.663194985,12.786805,-8.8859921665,-32.795615,-17.632296665,-72.344963335,0.0357775
2,23.75,-21.80326453,2.65476879,1.1884843015,-0.0178184205,402.9639721,5.513142695,1.322487938,0.1237740615,12.710118315,59.566846665,96.93124904,8.40154988,15.183191685,14.481943335,12.657783335,-9.1454725,-33.368008335,-18.090175,-70.166785,0.0364274865
3,0.25,-17.5453613,7.058029608,1.766213154,-0.0204396915,404.5250448,3.911115528,1.097856115,0.131600081,12.493143335,75.28764,96.835938895,10.67333112,18.755981665,18.341666665,15.75083335,-9.932679165,-37.017825,-19.15896,-68.40669667,0.0424
3,0.75,-16.63899313,1.730873666,1.628224756,-0.020382048,404.9512197,3.654268146,1.110190704,0.132431958,12.38583,77.25552667,96.82374647,10.69754482,18.668056665,18.10083835,15.48125,-10.132219335,-37.10048,-19.378541665,-68.590903335,0.040389837
3,1.25,-11.347364905,2.256253225,1.0490524405,-0.014324972,404.03434335,3.314888567,0.9505758655,0.110101043,12.391373335,76.7224,96.81117183,10.480135,18.568058335,17.933058315,15.264865015,-10.268768335,-37.259635,-19.704813335,-67.562391665,0.0364274865
3,1.75,-11.540467025,2.5798864645,1.4242049585,-0.0147070345,404.0369169,3.0270318785,1.0362552085,0.111970156,12.06864335,74.176143335,96.79525245,10.49113084,18.46861,17.735836665,14.92236665,-10.43315,-36.92924677,-19.98485,-69.21862833,0.0424
3,2.25,-16.75903716,4.591140714,1.498744107,-0.0166857535,403.8618226,2.8992907385,1.1441331795,0.1187565725,11.97209835,73.406085,96.784476525,10.374248475,18.350553315,17.533610015,14.641669985,-10.571455,-37.78686833,-20.387761665,-69.26995833,0.0397277435
3,2.75,-16.1006976,5.350149431,1.5150271315,-0.016512547,404.4097639,3.4954912605,1.0964213565,0.118519452,12.308801165,70.38805,96.753941165,10.45847114,18.225979985,17.358615,14.33639165,-10.873843335,-37.83192333,-20.473831665,-70.73166,0.04105202
3,3.25,-15.18026628,2.739406997,1.318223654,-0.0177795675,403.6737333,3.281202063,1.098693041,0.1227377005,12.0560233,69.677695,96.729052,10.6885466,18.070556665,17.2479167,14.10653,-11.007058335,-37.821396665,-20.411205,-69.72952667,0.0377396235
3,3.75,-15.5846925,5.207408221,1.131561078,-0.018095778,404.32167635,3.688047486,1.06425822,0.12360451,12.216925015,65.110548335,96.72105732,10.592118455,17.995145,17.095275,13.87055835,-11.096738335,-37.704585,-20.531498335,-68.631923335,0.0371
3,4.25,-18.13591268,8.8413520325,1.497096282,-0.016614719,404.6946346,4.105258391,1.2610507885,0.1180361465,11.87298,65.768468335,96.729546075,10.31402164,17.948605,16.93528,13.65305835,-10.89161,-38.66731,-20.883375,-69.269,0.04038991
3,4.75,-20.34656982,6.069982829,1.389645701,-0.018173134,404.7639263,4.2847749525,1.223008637,0.1238805235,11.65554165,67.330571665,96.75307499,10.225483615,17.834723335,16.75695,13.48416665,-10.921345,-38.342785,-21.002866665,-68.694048335,0.0397138635
3,5.25,-21.533180725,9.33326448,2.015655761,-0.020454827,404.3761177,3.314647494,1.1507971435,0.1317759425,12.120626685,64.985275,96.77161738,10.44735386,17.704718315,16.6041683,13.4020867,-10.979858335,-38.50859167,-21.02628333,-68.653991665,0.0582837
3,5.75,-17.321820055,4.8241021015,1.444108364,-0.017563265,404.4560436,2.244351702,1.171786021,0.121415885,11.906933315,61.747446665,96.773800565,10.28095039,17.574301665,16.40750165,13.26374,-11.09516333,-38.018145,-21.077345,-67.010233335,3.69070871
3,6.25,-15.22787561,10.77067088,0.7147141905,-0.017147172,402.7941051,3.875105621,1.081309071,0.1205268815,11.792810015,62.727891665,96.78505897,9.37181954,17.39305,16.2612533,13.073335,-11.002661665,-37.911398335,-21.340996665,-54.573235,40.366059165
3,6.75,-7.194546494,12.038528465,-0.165301087,-0.0207895765,402.3856883,5.707709088,1.001309287,0.1335809075,12.170005,62.905448335,96.807123155,8.42788642,17.290831665,16.111525,12.99151665,-10.688780835,-36.537435,-20.52000333,-42.06249952,92.860341665
3,7.25,-3.0926843425,15.45714503,-1.356633224,-0.0233060365,402.3191059,7.400902371,0.809241936,0.1407802615,12.316203315,63.558745,96.848949105,7.60783571,17.249719985,15.9588833,13.070975,-9.861770167,-33.412195,-19.327993335,26.580832,240.95488335
3,7.75,26.55854701,38.033960235,-4.338158691,-0.0269864165,403.93962955,9.216508028,0.8076391185,0.1519373015,13.85290335,57.744075,96.886982825,13.75929947,17.101521665,15.80986165,13.29138165,-9.0575468335,-29.566543335,-17.63361,177.00167585,640.47383335
3,8.25,54.43866844,57.00885214,-5.486222952,-0.0421934735,404.2268329,11.228662265,0.917641862,0.1902037365,15.547985015,56.41522,96.886218125,15.50117681,16.99887833,15.73208335,13.4223633,-7.259619,-24.70727,-15.081865,280.04665,852.79826665
3,8.75,78.42479747,81.11820979,-6.198864112,-0.04751512,402.53208195,10.75635208,1.133416903,0.202620571,16.60639667,49.03928,96.86663714,17.31311797,16.9227767,15.6822167,14.0094467,-5.335033333,-17.23654667,-11.35708767,367.3973,1088.849367
3,9.25,92.36548981,99.82894091,-7.0366582255,-0.0602943285,402.0596345,9.618286233,1.2052674025,0.230231015,17.3706833,47.31403667,96.880938835,19.271742625,16.80667,15.5933333,14.7194433,-3.802918667,0.490545167,-7.324327,445.1892667,1270.486367
3,9.75,124.5702597,123.1314225,-7.229789601,-0.073528957,400.1016398,9.240571265,1.3433243345,0.254442594,19.089595,42.20578,96.875010405,19.87299288,16.784735015,15.656665,15.424163335,-2.6205288335,26.174806665,-2.0594957515,503.38598335,1436.331317
3,10.25,132.47585715,115.7562643,-7.160674627,-0.0878973595,399.45639065,8.768936819,1.689331751,0.2771918805,20.064546665,39.65281833,96.87395402,20.99336526,16.704855,15.71249665,16.335,-1.079763256,51.37587,3.724254417,548.83168335,1558.1605
3,10.75,153.83441565,144.19792025,-7.2555576775,-0.099218685,399.02398925,7.909649713,2.072009867,0.2962534715,20.395655,40.867758335,96.86550452,21.812871465,16.706106665,15.816388315,17.47458835,0.4330134945,74.89793833,9.683472,576.2488167,1670.0146665
3,11.25,165.5901094,129.6501107,-7.622398536,-0.136120948,398.38417435,7.261593085,2.7378534935,0.344922062,20.853204985,44.10715,96.86335851,20.63665686,16.738881665,16.08902,18.9075017,2.1404709,90.16511333,17.775875,594.21463335,1732.9936665
3,11.75,177.3691161,139.4410184,-7.9538998775,-0.1483026015,398.03005815,8.034840572,3.0680805385,0.365541471,20.71448167,44.769105,96.832964055,20.09324079,16.811945,16.40917,20.518885015,5.8544455,100.162678315,31.182336665,598.88591665,1756.5861665
3,12.25,181.54928885,116.5008691,-7.516980976,-0.186419319,398.1290008,7.8819841015,3.2648765675,0.402782723,20.868003315,48.57935167,96.817755365,20.36023577,16.919028335,16.7684717,22.40542165,7.0013268335,104.66698335,46.821381665,588.0590833,1759.4145
3,12.75,192.39065345,141.69192085,-7.387261995,-0.190624953,398.27090685,7.744846138,3.2867952225,0.411720716,21.358330015,47.10322,96.774833545,20.289135685,17.059165015,17.229035,24.58889167,8.064013,107.7455333,60.080158335,568.88706665,1726.35435
3,13.25,193.6288732,158.72009165,-7.6400072075,-0.1828601065,398.41421665,7.6212095895,3.18262437,0.4041259695,21.37419165,46.96875,96.754468075,20.092564915,17.269169985,17.88583,25.686528335,10.196285665,110.58405,68.68372,532.07425,1664.298667
3,13.75,183.33391045,121.52726195,-7.393677902,-0.209630704,398.7234021,7.252019291,3.30437714,0.4284117595,21.20164,47.752735,96.74842881,19.82193801,17.492081665,18.45014335,26.2680533,17.06179333,105.59681835,74.16535333,490.0690167,1563.2008335
3,14.25,176.9695429,123.228003,-7.451735471,-0.1953415635,398.6249052,6.868931949,3.322406845,0.4189773565,21.1288333,49.352218335,96.73462149,19.67866794,17.82458,19.132356685,26.510276665,24.2656,100.319606665,73.75169667,432.13003335,1431.229
3,14.75,157.6261035,108.55749915,-6.7430519245,-0.194064203,398.61282645,6.501697093,3.309674256,0.411934644,20.477915,50.339955,96.7267435,19.18103562,18.067086665,19.73167165,26.4136067,28.13015667,91.99536,73.80683,361.37003335,1266.671167
3,15.25,145.18451365,82.311619575,-5.7572663265,-0.183463516,398.7802896,6.3827923135,3.182433532,0.40290782,19.977815,52.45781,96.707945665,18.76256365,18.301391685,20.28417165,25.895831665,28.76446,80.46682,70.53013,282.6744833,1084.5600335
3,15.75,125.27296395,78.318387335,-5.206184062,-0.160103396,399.19539615,6.453703935,2.913007246,0.373663095,19.45231165,54.72198167,96.709616325,18.48013716,18.533615,20.687216685,25.198475,27.63947,64.830556665,65.258645,202.18103335,865.2264167
3,16.25,89.66743009,65.3315549,-4.711138716,-0.129075072,399.06910945,6.564064489,2.734126843,0.338740143,18.927225,56.82936,96.726089985,17.25505501,18.792078315,20.94027835,24.651526665,25.263718335,48.347658335,53.387713335,113.09261665,636.1297
3,16.75,61.95474483,37.82277636,-3.31689549,-0.098388399,399.5420415,7.0685186415,2.471166601,0.2939608585,18.550160015,58.444806665,96.720017715,16.69156332,18.99278,21.066666685,23.904305,22.626165,32.04428833,34.940056665,31.467501685,409.96211665
3,17.25,19.61635755,28.498292175,-1.495644491,-0.069238426,399.3329277,11.84757492,2.0101698,0.2468592205,17.872861665,62.655033335,96.717160855,7.58591072,19.108335,21.160279985,23.13055167,17.897455,14.4705815,20.549361665,-34.693386195,189.861605
3,17.75,-6.5547586035,11.17160099,0.579695874,-0.03732372,399.6895028,7.229199562,1.512509452,0.178932877,16.576311685,68.06858,96.735013365,12.195473915,19.208611665,21.18055165,22.248331665,11.355887,-1.1451666,9.9159716685,-78.39687,39.27089617
3,18.25,-13.689986235,5.713365674,1.889426221,-0.0226053895,401.3635946,2.2693228445,1.442730726,0.1380384185,15.324928335,68.416591665,96.746182355,12.991245085,19.303059985,21.101946685,21.370831665,2.081156252,-13.408769835,1.3044932865,-82.25575,1.41364624
3,18.75,-14.452203905,5.566842233,1.94611472,-0.018519927,402.53268325,4.231329298,1.2727930955,0.1256784555,14.583946665,70.808428335,96.773547215,11.81594044,19.35639,20.980553315,20.540834985,-3.1753376665,-22.933521665,-4.9384041665,-79.82092667,0.0556
3,19.25,-14.85351337,3.055421176,2.114715175,-0.017082643,402.5157281,3.699320324,1.091744966,0.119709635,13.99794,73.058136665,96.79926728,11.23366662,19.345829985,20.804169985,19.861665,-6.7765075,-29.15644,-9.0732593335,-77.54849,0.0489987935
3,19.75,-17.254109485,4.2079575155,2.609464418,-0.012287599,402.0835762,4.036986594,1.282113556,0.102569177,13.922844985,74.030591665,96.816355565,11.443880045,19.3630567,20.621939985,19.15652333,-9.0159866665,-32.733163335,-12.11240333,-75.095916665,0.0477
3,20.25,-17.685390695,5.00083161,2.564375992,-0.011539825,403.18519095,5.493204431,1.447909759,0.099026572,13.791366665,74.44609167,96.82708477,10.728001505,19.361115,20.395281665,18.744163335,-9.589962833,-35.184865,-14.44472,-75.7042,0.048997527
3,20.75,-18.364846515,3.417877072,2.1936041625,-0.0141689355,402.1956118,3.592868644,1.4820957045,0.1098740705,13.472316685,73.25438,96.84552255,10.69958908,19.3605617,20.12695,18.19097335,-9.139422333,-36.425053335,-15.87608833,-75.950533335,0.0411
3,21.25,-18.09325232,5.2051890605,2.088839853,-0.016795579,402.2493198,3.178678996,1.3733596895,0.119382599,13.18073165,74.15170833,96.867158285,10.7119636,19.35472335,19.84556,17.7255483,-9.2495698335,-36.65408,-16.914981665,-73.967851665,0.0424
3,21.75,-17.473803945,1.9880400955,1.83165936,-0.0192094125,402.5793507,5.319477846,1.371033919,0.1269799265,12.749501665,73.995328335,96.866915195,11.010944695,19.30194335,19.549443335,17.23305835,-9.7906931665,-36.812743335,-17.748725,-72.58553667,0.0443502565
3,22.25,-14.017898015,2.7937969335,1.699981177,-0.016639324,403.14841385,4.754474154,1.369606974,0.119438255,12.732948315,76.200546665,96.865827415,10.656380295,19.23027835,19.2475,16.876396665,-10.716942835,-36.85833667,-18.415228335,-73.039108335,0.0410760165
3,22.75,-13.09214647,1.948486571,1.698626742,-0.020703343,403.29960145,5.357371222,1.19501934,0.132342559,12.461315015,76.118805,96.85701107,10.730575,19.10083835,18.98361167,16.58139335,-10.632465,-37.292221665,-18.769546665,-70.413125,0.04038989
3,23.25,-15.102469525,1.792731171,1.511793568,-0.020519973,403.89475615,5.4995164685,1.1881456075,0.1311102425,12.454678335,77.08536,96.84399227,11.049206985,19.05694335,18.768606685,16.2580583,-10.50585833,-37.13581167,-18.93294,-68.60315167,0.0410520065
3,23.75,-10.900237725,1.6566427635,0.9334436265,-0.0160925255,403.7680171,4.192564373,1.0470702425,0.11693566,12.498035,76.66674,96.84100441,10.735492435,18.984445,18.552223335,15.99888335,-10.16196017,-36.935438335,-18.895725,-71.025251665,0.0450123965
4,0.25,-13.245805245,1.1522703585,1.305618353,-0.0208391455,404.2271755,4.784661372,1.1808159335,0.133182327,12.84999165,75.36632333,96.70367273,10.362241855,22.143610015,21.683054985,18.852776665,-12.098933335,-41.227766665,-20.071765,-73.518595,0.045024777
4,0.75,-14.669520365,1.8263686815,1.807019358,-0.016079566,404.0946205,5.5754589595,1.310829201,0.1166726795,13.110423335,70.704231665,96.683060755,10.198261135,21.941386665,21.434721685,18.648611665,-12.328835,-41.38492333,-20.611821665,-72.075605,0.0437002635
4,1.25,-17.28259641,2.083148054,1.916226343,-0.0163546075,404.733086,5.940540988,1.213987672,0.1178494425,12.853508335,71.721473335,96.66111947,10.3235117,21.82083335,21.169448315,18.36889,-12.50927,-41.368016665,-20.98831667,-71.41958167,0.0430502665
4,1.75,-14.085058245,2.111186795,1.346379825,-0.020716208,403.9763764,3.8603653265,1.0654008085,0.1325689365,12.52388333,72.718801665,96.650772885,11.21860879,21.78028,20.94166665,17.98625165,-12.625468335,-41.033495,-21.422688335,-70.575985,0.0403898865
4,2.25,-12.382997215,1.03160846,1.627678354,-0.020168933,404.9760248,6.0659636155,1.1360086945,0.1309279155,12.430739985,72.968431665,96.630065835,9.642717885,21.658889985,20.741115,17.65611,-12.878333335,-40.560453335,-21.43498167,-71.432531665,0.0437
4,2.75,-15.060102525,2.175249648,1.5077238445,-0.015720022,404.9041462,5.585856782,1.132436149,0.1159301005,12.485706665,74.271081665,96.6338748,9.92547676,21.48138335,20.5263867,17.372221685,-13.11899,-40.828955,-21.78006333,-70.64219667,0.0410520065
4,3.25,-11.041235205,3.356119103,1.3407281585,-0.0189104805,405.0828454,6.36692452,0.9844824975,0.1258246575,12.515821665,73.777576665,96.597748565,9.11707919,21.40167,20.314445,17.28027665,-13.11361667,-40.74431,-21.878783335,-69.083341665,0.0377517465
4,3.75,-12.2506235,2.4350177295,1.387372595,-0.017766452,405.7060485,6.164532018,1.02359055,0.123356974,12.04397,74.14542667,96.571392765,9.77829008,21.23833,20.103891685,17.138056665,-13.122835,-41.042955,-21.82455167,-70.98951,0.0397
4,4.25,-13.68434894,2.3714739595,1.6445125665,-0.01521222,405.38911405,4.317510683,1.0914173505,0.11390023,11.88725665,75.224128335,96.586521,9.92132937,21.0527733,19.880001685,16.882913335,-12.953765,-40.25603,-21.80499667,-69.66404,0.0377517435
4,4.75,-13.156154545,2.469520105,1.371384435,-0.016304665,405.9704193,4.030093504,1.009811733,0.118347488,11.92073165,74.902688335,96.61409812,10.23291389,20.99472335,19.65833165,16.673053335,-13.265663335,-40.76082833,-22.034598335,-68.599061665,0.07945555
4,5.25,-12.104453405,3.97478731,1.260794416,-0.014942988,405.45011685,2.0481406055,1.0557764885,0.114590566,11.92198335,74.658675,96.618090165,10.824151935,20.832223335,19.45639,16.46486165,-12.997821665,-40.539926665,-22.099365,-65.58499167,8.2368901335
4,5.75,-9.9326673245,4.5349720735,0.4393429565,-0.0154685245,405.15558385,3.825717522,0.9340780175,0.114091449,11.920358335,72.999465,96.645251105,9.385161395,20.688888335,19.240828335,16.3036133,-12.70197,-40.050993335,-22.048771665,-52.445676665,54.836236665
4,6.25,-5.3954054365,10.52129263,-0.676351344,-0.0177831045,404.57929105,8.147147947,0.656414173,0.1231272185,12.537056665,72.685916665,96.676298985,6.427507685,20.594721665,19.03805667,16.179580015,-12.127885,-38.42339,-21.438195,-8.586032635,143.7046283
4,6.75,16.683991155,21.42575663,-2.703210034,-0.016455061,406.0561045,8.8676686425,0.7243386985,0.1184885085,13.223979985,67.9513,96.71899168,7.32522682,20.382226665,18.860550015,16.108608315,-11.105225835,-35.764388335,-20.49543833,87.484679165,383.3987283
4,7.25,53.78830041,43.213879075,-5.147903483,-0.026947029,406.75311895,10.52892709,0.693984315,0.152840895,14.441413315,62.094575,96.72878882,13.164435285,20.274721665,18.74402335,16.23388835,-9.381825833,-31.54391167,-18.77328667,193.3088333,658.26923335
4,7.75,69.852185815,55.11113181,-5.689707726,-0.0361946515,406.21523715,10.68827908,0.791171908,0.1792258835,15.45240665,56.396375,96.73360846,14.71220405,20.20694335,18.6774983,16.599300015,-7.7920358335,-26.448165,-16.266336665,283.86788335,871.8702
4,8.25,100.73851248,73.06510864,-6.6832115255,-0.052277998,405.5639511,10.439720545,1.1788446895,0.213872317,16.593285,50.07601333,96.727989355,16.062112745,20.01749835,18.651393315,17.055280015,-5.840931333,-20.346275,-12.88965667,374.57005,1091.66345
4,8.75,130.8538065,89.93928504,-7.109070296,-0.0817215,403.63352925,8.59755241,1.411323585,0.267266672,18.23866667,45.53242667,96.72885573,16.632735905,19.90666,18.6166733,17.68666667,-4.315771667,-9.247236333,-9.646791667,448.4988333,1299.082333
4,9.25,156.74376495,100.67163255,-7.207425498,-0.090571321,402.0623908,7.292796671,1.4781380245,0.2858469735,19.36187,43.917333335,96.741773775,17.21519285,19.894438335,18.717365,18.37167,-2.7950796665,5.37715555,-5.9245348335,507.3600333,1447.0135
4,9.75,189.21515695,111.2096149,-7.392904593,-0.1020544815,401.4662454,7.354477416,1.78564978,0.30013751,20.158231665,43.637611665,96.715066065,18.038979485,19.821668335,18.7874933,19.03139,-1.9250371665,25.441098,-2.6115690665,560.59455,1600.6581665
4,10.25,211.67579025,113.3099026,-7.5412729355,-0.149772873,400.8934278,6.536122799,2.262217109,0.36377501,20.96195333,43.728425,96.71183134,18.647955235,19.741111665,18.87430835,19.827221665,-0.197282007,48.732481665,2.342068055,595.98116665,1698.472833
4,10.75,227.67803275,121.4975151,-7.775666133,-0.182474449,400.7740634,7.60338698,3.0469183255,0.402021452,21.292731665,46.24063333,96.67692764,19.34301207,19.733610015,19.05569335,21.17028335,1.8074273665,73.74223333,7.8182085,616.6720033,1788.8885
4,11.25,243.7193125,122.45321865,-7.8389766355,-0.198933645,400.491126,8.026577863,3.273576288,0.4266382045,21.691874985,43.728305,96.662339245,20.59845095,19.774165,19.36694835,23.21944335,4.621617833,89.913736665,11.7850785,627.4317,1841.429667
4,11.75,255.3685117,108.086362,-7.362725165,-0.211255053,399.7550361,8.192662807,3.323576389,0.431814262,21.98028667,44.71967,96.66556309,20.50014504,19.81222,19.82334,26.2197233,7.323008667,100.5098567,18.01328,625.9367333,1874.415667
4,12.25,265.2950306,114.9987363,-7.862811808,-0.228895952,399.46998235,7.686133719,3.466255064,0.456734898,21.927623315,45.16074,96.65797407,20.66499278,19.891943315,20.33555335,29.204581685,13.9244535,105.37142335,27.075305,617.58613335,1874.9641665
4,12.75,269.9780907,100.6009857,-7.63706048,-0.241178548,399.8872068,7.801387825,3.6267366695,0.4572199925,21.95859665,46.080305,96.63389949,20.18024534,20.155275,20.9533333,31.746528335,26.466235,107.80321665,42.026935,592.3329,1833.1583335
4,13.25,270.8261074,122.7083956,-7.376958096,-0.244608105,399.4569045,8.576390819,3.540574589,0.4687259155,22.20657165,47.32774333,96.623244175,20.03667904,20.40082835,21.7566667,33.49208333,33.63147833,108.78145,55.94989333,554.4255667,1769.0836665
4,13.75,256.91179625,112.6646047,-7.2927254425,-0.22623396,399.85772445,7.010585455,3.4507333375,0.446969729,21.806008335,47.504058335,96.607265105,20.25553044,20.71806,22.29263835,34.543753335,41.298733335,108.62783335,67.60182333,503.19823335,1666.876
4,14.25,264.4798164,113.084909,-7.2711345705,-0.235386442,399.8100991,8.0611714005,3.4683439585,0.454662593,21.780831665,45.76776,96.59001244,19.566477685,21.049721665,22.961525,35.033886665,45.75682,102.568525,75.05814,447.2529,1541.6073335
4,14.75,227.96162305,90.01353437,-6.717201936,-0.220457718,399.92671415,7.976707138,3.483748741,0.443780698,21.715316665,44.206878335,96.576627935,19.15808534,21.381946665,23.53139,34.535695,46.60023333,94.563605,76.26611333,381.57445,1382.4935
4,15.25,206.15522765,91.74031911,-6.206127646,-0.1955167455,399.7780664,10.08720015,3.279559667,0.416990765,21.204301665,43.730236665,96.56154472,18.55004949,21.694720015,23.993475,33.400138335,44.69893833,84.34786333,74.99330667,308.13165,1197.0985
4,15.75,179.7603968,72.35942122,-5.570378739,-0.171944606,399.59404115,9.778894856,2.9823667315,0.38920523,20.900943335,46.43503,96.549463305,18.39929431,21.998049985,24.398613335,32.45360833,42.16905,71.455951665,70.000345,226.3630517,989.27655
4,16.25,136.1707888,61.72013506,-4.8423236385,-0.1436012935,400.2391821,8.974635248,2.7616230845,0.353430561,20.556695,47.235103335,96.542332965,17.74626706,22.445,24.73250165,31.079585,38.55465167,56.331788335,62.059693335,142.44674835,763.3976
4,16.75,103.65379865,45.422333255,-4.069257689,-0.117037317,399.4244628,9.596405483,2.4781038275,0.3235222875,20.004996665,47.293671665,96.530140955,17.026687875,22.713048335,24.84249335,29.787916665,32.565626665,40.722641665,47.39929,58.14068167,551.18235
4,17.25,56.351974415,28.6586001,-2.794249971,-0.101810126,399.7791894,10.00205005,2.4549951565,0.298568957,19.087603335,51.374436665,96.542981585,14.26646176,22.783609985,24.875836685,28.659583335,24.618043335,23.725313335,30.00287,-16.73193517,320.1257
4,17.75,18.192316335,17.77235378,-0.8817440135,-0.064456493,400.0168863,11.45708205,1.9933262705,0.2376768505,17.96284335,57.34806,96.56833751,9.0400265,22.897221665,24.868614985,27.56930667,16.102177835,8.1153518335,17.85150833,-69.048323335,127.40957
4,18.25,-6.722082592,8.429325344,0.906897392,-0.0363551515,400.72820395,3.926661896,1.7267175505,0.177184591,16.51580835,61.889805,96.58057162,13.498392865,22.97208335,24.81722,26.50208333,8.150639333,-6.0034650335,8.430213833,-90.483198335,18.201276665
4,18.75,-11.443895565,0.826090855,1.979685829,-0.022965615,401.799155,1.694107313,1.2920652455,0.1412919695,15.29943167,65.381835,96.602818075,14.246855125,23.10986,24.725829985,25.460555,0.9169728735,-18.12131333,0.7206359855,-90.578653335,0.2549197365
4,19.25,-11.489526695,0.819635205,1.851234075,-0.017751198,402.1571319,4.566795836,1.113500776,0.12317822,14.862245,67.791218335,96.635282935,12.25625905,23.11875,24.51277835,24.55125,-4.8665661665,-26.88134,-5.581505833,-86.19617167,0.05495943
4,19.75,-12.45007297,0.0462087715,1.96317058,-0.0170320105,401.9870845,4.4577356255,1.2056794025,0.120433763,14.4948,70.731256665,96.677419775,12.126996435,23.052083315,24.268608315,23.72597,-6.7761125,-32.45487,-9.6721885,-82.85755,0.05364728
4,20.25,-13.995278705,1.732756067,2.067080595,-0.015497823,402.66206575,4.579144286,1.2027973065,0.115162302,14.196203335,70.683011665,96.713950425,11.01226812,22.99694335,23.994028335,23.044026685,-8.846128833,-35.68773167,-12.58784,-81.122895,0.04500026
4,20.75,-12.558299065,0.508216371,1.6937399705,-0.01526219,402.5276864,4.662017138,1.164549165,0.11401434,14.08636,71.500565,96.718583365,11.85983503,22.91944335,23.723891665,22.321529985,-10.1829348335,-37.86531333,-14.79592167,-77.43408,0.0463
4,21.25,-12.095724705,0.781245464,1.665614006,-0.012148284,402.2664974,5.4142488365,1.185078921,0.1014402255,13.501129985,72.764625,96.72123571,11.828610495,22.823883335,23.460834985,21.72722665,-11.113816665,-39.10681,-16.44691833,-75.71595167,0.0509839335
4,21.75,-11.965781385,0.2834750555,1.5557647175,-0.0182043825,402.2170937,5.676375531,1.2623414925,0.124571656,13.351643335,71.981098335,96.720523865,11.03769913,22.781106665,23.20013835,21.230558315,-11.54447,-40.18805667,-17.6986,-76.862965,0.0450123835
4,22.25,-13.817096125,3.066270517,1.658069363,-0.017783463,402.6217368,4.73001465,1.198274176,0.122628139,13.22371835,72.211358335,96.72527674,12.11998112,22.74389335,22.88388835,20.7794417,-11.76051833,-40.447645,-18.2181,-76.575856665,0.0443502735
4,22.75,-12.604251025,1.98606759,1.875972994,-0.015812771,403.2933377,5.310021419,1.3522328095,0.116376323,13.260583315,73.321488335,96.71958964,10.35699435,22.63916667,22.698056665,20.35333335,-11.695318335,-40.511073335,-18.94696333,-74.36171,0.03905175
4,23.25,-12.26558335,1.342839806,1.864555293,-0.014994151,403.5971454,4.683516224,1.104692188,0.1132062635,13.04818,75.667296665,96.719408875,11.23739294,22.48111,22.45027835,19.9900033,-11.947281665,-41.004651665,-19.268326665,-74.756753335,0.04565
4,23.75,-17.61760564,1.2229889305,1.658222833,-0.0155796775,403.7566701,5.365545209,1.3215492405,0.1144410635,13.13362,73.021513335,96.707089845,10.5802541,22.384445015,22.113333315,19.59167165,-12.232435,-40.887085,-19.69748,-75.023243335,0.0417141335
5,0.25,-3.370620648,0.630575424,1.7459691175,-0.0201723965,395.1410619,4.801934672,1.07769713,0.130955533,12.23500665,88.702821665,96.548650035,10.7284856,26.06125,25.893333335,22.71972667,-11.514096665,-37.499403335,-19.575143335,-40.23942667,0.0410520035
5,0.75,-1.5460910285,1.060868541,1.393498137,-0.0165401445,395.580788,4.889327748,1.0520646535,0.118635262,12.186608315,88.48614833,96.52115897,10.86873619,25.879305015,25.602078315,22.32611333,-11.325968335,-37.220746665,-19.675971665,-40.673818335,0.0371
5,1.25,-4.4013528445,0.9728418365,1.398411639,-0.017687186,396.331421,5.6374627485,1.1023461225,0.1226615095,12.13877,88.632125,96.505604165,10.75631594,25.681666685,25.310976685,21.834445,-11.259593335,-35.642681665,-19.287941665,-44.20935833,0.0358
5,1.75,-1.7685161225,0.843748041,1.46205938,-0.020428894,396.17539675,4.867072525,1.0942239785,0.1323173265,12.08709,88.51235667,96.492520135,10.72843825,25.53514,25.044998335,21.670561685,-11.17529167,-34.01657333,-19.34923,-38.750375,0.0358
5,2.25,-1.437784987,1.702954625,1.658699599,-0.0184539275,396.8843731,4.7271540415,1.073462476,0.1255469755,12.07670165,88.791235,96.480690385,10.988319155,25.464865,24.822781665,21.33055333,-11.29046167,-33.221655,-19.489965,-35.264246665,0.0384
5,2.75,-1.1815335065,1.943329796,1.257443505,-0.019350504,396.8700835,5.386285374,1.106565105,0.1283616385,12.019546665,88.399818335,96.4827993,11.16946226,25.267638335,24.598055,20.94944833,-11.23381167,-33.425225,-19.526756665,-34.868475,0.0357775035
5,3.25,-1.228762064,3.854365331,1.223476965,-0.017293938,397.4747686,5.414124251,1.0460870915,0.1218503705,12.1369317,88.14781,96.48995148,11.16170888,25.069028335,24.30986,20.630003335,-10.821485,-33.175895,-19.70307167,-34.05343333,0.0371
5,3.75,-0.209435343,1.705743859,1.4427408005,-0.0189106495,397.0757526,5.3475294305,0.913452496,0.126575141,12.07277335,89.088648335,96.47700904,10.776322875,24.959584985,24.027915,20.32721835,-10.82171167,-33.23986,-19.762105,-34.766778335,0.03840175
5,4.25,-1.3968330765,1.41559019,1.583835288,-0.017554398,397.390732,4.7494580765,1.1753405555,0.122424604,11.970483315,89.425966665,96.47305399,11.323093175,24.761248315,23.78069,20.14833335,-10.301051665,-32.33202667,-19.364785,-34.010025,0.0615780235
5,4.75,-3.5755976815,2.849615224,1.323574889,-0.016265071,398.58279785,1.8235622085,0.9825956435,0.1177614995,11.91411,89.644446665,96.47692642,11.722861085,24.655696685,23.64721835,19.77944165,-10.350926335,-31.800965,-19.133756665,-33.30267167,3.5231888365
5,5.25,-1.121624696,3.5313510295,1.158453173,-0.0175230775,397.4267032,3.986134036,1.019703158,0.1225122695,11.934725015,89.46645,96.479213905,10.321160655,24.557083335,23.45166665,19.483610015,-10.710206665,-31.970541665,-19.063815,-21.971441665,37.122285
5,5.75,4.6737040565,5.861585257,-0.1271994355,-0.024285206,398.0448435,7.9897565845,0.866676126,0.1440113305,12.209285,86.36497,96.501781015,7.56761352,24.373335015,23.307363335,19.424445,-10.4535,-31.005228335,-19.248878335,-10.438233065,93.87875
5,6.25,16.49834159,12.40473785,-1.4308279165,-0.0247949075,400.29293765,10.27478625,1.0188128675,0.1458480595,12.553578335,85.469415,96.52822487,6.31528147,24.22208335,23.045695015,19.4838883,-9.398446167,-28.333483335,-18.71388,46.522563335,208.46945
5,6.75,36.753403855,26.59610502,-3.7143470195,-0.037443221,401.73913375,10.842773535,0.9752269895,0.179360998,13.141161685,80.458938335,96.537877965,7.638913845,24.12208335,22.85055835,19.721665,-8.2883233335,-25.889823335,-17.21262667,99.165426665,376.58085
5,7.25,62.25527187,31.755228685,-4.231480554,-0.048065481,401.512825,9.337571428,1.094499875,0.203436651,13.81856,77.08790667,96.54620905,13.433344625,23.89972,22.68278,19.9538833,-7.18402,-20.90786333,-15.41357,211.6852433,695.8834667
5,7.75,98.71390422,37.284190885,-4.535836934,-0.063817887,401.7020793,7.5310310245,1.233115015,0.2344702875,14.473215,71.098073335,96.54912555,13.954668365,23.86235835,22.54833333,20.314996665,-6.0112985,-15.488678335,-13.353795,325.9273,941.94836665
5,8.25,124.7471144,46.400209405,-5.082769254,-0.071464187,401.0009886,6.277576658,1.3730135455,0.252123573,15.1823967,66.236816665,96.53976248,15.79503697,23.784721685,22.43223,20.958895,-4.157336167,-8.5572783335,-10.512109335,402.6778,1161.63255
5,8.75,165.1780609,56.21074607,-5.3543306785,-0.0875252875,399.6942398,5.660714714,1.5894650655,0.275796216,15.981333335,64.19465333,96.54098506,16.18970092,23.70527665,22.410278335,21.505835,-2.8363565,1.539007785,-7.5443325,471.1241333,1406.041583
5,9.25,198.4512827,55.965952245,-6.0346525815,-0.130637526,398.2861387,5.804092101,2.186913129,0.335080277,16.513501665,62.784058335,96.52877357,17.09161789,23.650835,22.425558335,21.959305,-1.791651383,15.010715335,-5.098217,529.6896,1551.256333
5,9.75,227.79540175,64.45866466,-6.178966776,-0.1570201705,398.9236561,5.706508231,2.665275594,0.368942068,17.205128335,59.77381,96.53742071,17.143708845,23.644165,22.471945015,22.9269417,-0.5360365015,30.03526833,-2.45307345,569.5908,1656.001667
5,10.25,253.4717976,69.72985752,-6.211962242,-0.163822154,398.1278401,5.6517475765,3.015417887,0.3797187555,17.526775,58.53275333,96.54208101,16.709140455,23.64222,22.58194335,24.572778315,0.537054183,49.052196665,0.3640606095,595.89673335,1604.9813235
5,10.75,285.252386,68.42762942,-6.392832724,-0.2091826415,397.6555092,5.8250545055,3.356425867,0.4281848375,18.03891165,57.93735667,96.54022844,17.44615602,23.63360835,22.781948315,26.45041667,1.9646188335,65.295273335,4.1664828335,625.6216,1824.4149565
5,11.25,298.8088684,57.5391304,-6.274098891,-0.21172519,397.5203478,5.8258918195,3.641819777,0.430360638,18.054225,58.74374,96.528396185,17.83216362,23.6441667,22.921389985,29.20291665,3.4721366665,81.409023335,8.6454758335,637.79743335,1910.154
5,11.75,311.8203831,66.16206232,-6.623983836,-0.20856082,397.31960775,6.4143279845,3.7459018525,0.433652289,18.42827665,58.234223335,96.508311565,18.00707034,23.66083165,23.32916665,32.009585,5.968043167,90.48850667,12.436561665,638.49015,1920.20495
5,12.25,322.2976364,64.476575735,-6.3861505475,-0.235646168,396.85169545,6.651354836,3.7134144725,0.4639559315,18.940266665,56.734535,96.49331802,18.15073862,23.692496665,23.8641667,34.68374835,9.1464333335,96.064651665,17.24684,618.2973,1908.3528335
5,12.75,320.44344215,63.66329236,-6.247662918,-0.2389656,396.4688229,8.5421394695,3.682784622,0.463298885,18.97729,56.432553335,96.483142015,18.09560464,23.9774983,24.55208167,36.8232,14.364875,99.426441665,28.20243,594.55858335,1789.2851415
5,13.25,328.8321957,64.8811208,-6.505526763,-0.2379236055,396.4152678,8.7767649185,3.7559836625,0.4636848375,19.246048335,56.881316665,96.47649515,18.68152096,24.171945,25.206803315,38.719305,23.024181665,99.23800333,41.656066665,566.7456667,1796.949333
5,13.75,324.62236705,64.60865119,-6.422436512,-0.23809054,396.1108575,9.808850064,3.717584787,0.4633851945,19.217908335,56.835951665,96.471171795,19.18687596,24.460554985,26.23194335,40.12388833,28.05540167,97.397425,53.63807667,522.6315,1717.8081665
5,14.25,307.23481535,60.06202593,-6.040191048,-0.238877522,396.550396,9.816067713,3.597233958,0.459399729,19.16915835,57.34539,96.44894251,18.88508759,24.771806665,27.190831685,40.94332833,31.183808335,92.44712667,63.26608,469.8578833,1606.55885
5,14.75,294.04055675,55.34974658,-5.933597299,-0.225187638,396.162386,8.2289618235,3.5515205875,0.444099881,18.700544985,57.677156665,96.44632713,18.20984225,25.09291335,27.97069335,41.066238335,32.58740333,87.975965,66.31563,405.0349,1444.674833
5,15.25,271.1669261,38.31151787,-5.044208467,-0.208592595,396.3589908,7.5809161265,3.5437626085,0.431867779,18.2807067,59.745888335,96.442298415,17.46624949,25.5023583,28.73541665,39.98875,31.74909333,77.340681665,68.31751333,331.3884167,1277.5573335
5,15.75,241.9134417,47.71161223,-4.925725976,-0.197693962,396.2669849,8.245243611,3.343017132,0.4156657605,18.44282835,60.49025333,96.42820745,16.092256935,25.839861685,29.3320833,38.553473335,29.985418335,63.990148335,66.30339,260.8841667,1088.557517
5,16.25,198.45676785,38.66368781,-4.220604881,-0.1850887275,396.0268829,9.9800541645,3.161076745,0.401129564,18.3046633,61.691758335,96.422152965,16.69139368,26.164583315,29.7041667,36.88639,27.89289333,52.552846665,61.34053,175.95138335,854.62896665
5,16.75,160.62160235,24.95891673,-3.968974704,-0.1744270285,396.6257698,10.656576005,2.936090088,0.3908277485,17.961249985,63.559901665,96.42245178,16.25920177,26.370971665,29.9208333,35.470551685,24.47442,37.237108335,54.786971665,102.79018335,639.9832
5,17.25,105.3769084,14.371712925,-2.5853736755,-0.1370239775,396.4627543,9.704930715,2.759288801,0.347620395,17.34767665,66.43397,96.412921975,15.4896869,26.684583335,29.95916665,34.164306685,19.663211665,24.95098,41.633235,24.74613885,417.7534
5,17.75,56.808721465,14.870584645,-1.485689389,-0.1095614995,395.8896561,11.8870963,2.6367551445,0.306787007,16.06067335,70.28179167,96.42305573,9.549905905,26.75541667,29.749583315,32.82139,14.127098335,10.783861835,25.872283335,-35.544885165,214.45116835
5,18.25,15.316410195,4.475373439,0.4179033805,-0.0743918595,394.4636092,10.21866461,2.2941889315,0.2527301645,15.09650335,75.26158,96.451167925,9.69040691,26.903746685,29.485416665,31.56611,8.3063055,-3.966240735,13.684233835,-74.744516665,53.447065
5,18.75,1.3343366185,0.9728619435,1.430178042,-0.0444943575,393.8582289,4.074553765,1.7774866395,0.1956574405,14.240468335,79.990015,96.467648975,14.247549035,26.927638315,29.15916665,30.28986165,2.0917298915,-15.7655515,4.1615804255,-82.692775,3.6523059335
5,19.25,-4.0043197945,-0.5884899165,1.7141382835,-0.031379163,394.13726835,5.428874924,1.5447443875,0.1638013245,13.922915015,83.42177,96.493239315,13.17600272,26.90625,28.84875,29.140416665,-3.6972941665,-23.46432,-3.1865707235,-81.046606665,0.0768034935
5,19.75,-3.8539800585,-0.6395884545,1.45797851,-0.0250221945,393.8639626,6.125596308,1.357758878,0.1474895485,13.683653335,85.81436,96.521068675,11.72589882,26.899581665,28.482500015,28.029166665,-7.007377,-29.883835,-7.748738,-76.515891665,0.0470111735
5,20.25,-2.4579650755,-0.651640396,1.503476819,-0.021378407,394.1094382,6.391672871,1.374350264,0.135173683,13.417088335,86.67672333,96.533171805,11.28733476,26.813336665,28.084583335,27.06764,-8.6588553335,-33.14629333,-10.151633335,-70.969846665,0.04371238
5,20.75,-3.149614552,-0.244703616,1.6024489865,-0.021661352,394.31900485,6.050874286,1.2490092845,0.135929322,13.165335,87.022175,96.568177175,11.45440121,26.782361665,27.74402835,26.4320833,-9.4652288335,-34.889838335,-12.69505,-61.09719,0.0437
5,21.25,-3.484920139,0.453058498,1.468746537,-0.0162269675,394.69639775,7.898491844,1.108447642,0.1174347595,13.009648335,87.78034167,96.577310005,10.51270815,26.67889167,27.36791665,25.953885,-9.9328484985,-36.473358335,-14.987621665,-61.06793,0.03905
5,21.75,-2.966228371,-0.267350597,1.4729201235,-0.0186026175,395.9491844,5.840528133,1.103142965,0.126529911,12.93667165,88.11143,96.5841505,10.36457695,26.595833335,27.027916665,25.3368017,-10.166375,-36.181898335,-16.679676665,-58.96315833,0.0357774865
5,22.25,-2.2621704275,0.290546539,1.45625337,-0.0197579535,395.84074235,5.4354369225,1.141181852,0.1297951225,12.908943335,87.538093335,96.57910916,10.743336825,26.41083335,26.643333335,24.671255015,-10.55154667,-36.51334167,-17.477171665,-62.470876665,0.03775173
5,22.75,-0.7207301215,0.588510656,1.316336114,-0.020814393,395.14225565,5.680884484,1.195906099,0.1327660125,12.92974,87.89345,96.57852099,10.85149575,26.295005,26.3715283,24.150555,-11.017988335,-37.03517333,-18.27186167,-46.36186,0.0417381465
5,23.25,-1.0884415825,0.4494172245,1.296951604,-0.017515132,395.2167746,5.6971799645,1.1584688525,0.1224041675,12.797205,88.863485,96.5688545,10.970153145,26.199585015,26.03763665,23.64584,-11.336268335,-37.051371665,-19.09903167,-47.40166,0.0344
5,23.75,-4.1694893495,1.2672937445,1.9031191035,-0.0164818345,395.7276942,5.636349324,1.115352646,0.1179392565,12.39687,88.64092667,96.555786205,11.37411735,26.176250015,25.80222165,23.295561665,-11.550685,-36.906046665,-19.399731665,-44.84211167,0.03441535
6,0.25,-1.4087216845,-1.001803942,1.237489402,-0.0135822545,390.4475021,13.174084385,0.980167564,0.108431312,14.348198335,88.34759833,96.328514375,3.72862733,29.0525,29.24666667,26.009581685,-13.334015,-37.57115,-15.344836665,-64.10863833,0.0417381235
6,0.75,-3.0835275365,-0.779802559,1.426421244,-0.017326137,390.7225531,13.182696335,0.915075536,0.1233336895,14.331436685,87.86680333,96.32126644,3.433956715,28.90625,28.92,25.50028,-13.03513333,-36.95559167,-15.94239667,-64.90210167,0.0384017435
6,1.25,-0.245788506,-0.390069874,1.075780156,-0.021381007,390.71444,12.8809803,0.8532146055,0.1355491145,14.23891,89.438603335,96.321379705,2.94878968,28.86,28.602916665,25.24111,-12.809463335,-36.945481665,-16.205148335,-63.003848335,0.035092827
6,1.75,-1.4864365035,0.187108072,1.463220913,-0.017873088,388.833032,12.699149655,1.0127390285,0.124452874,14.10106,90.02597333,96.31266064,3.071324745,28.62583333,28.278333335,24.88805667,-12.46493667,-36.508098335,-16.272305,-50.500175,0.0423881335
6,2.25,2.1390495845,-0.537633411,1.432858968,-0.0236935925,389.7584759,12.412435665,0.8982276625,0.142940343,13.926435,91.27854167,96.307475025,3.19089637,28.415833335,27.972221665,24.57639,-12.14325833,-36.35093167,-16.533628335,-25.48946333,0.0317911035
6,2.75,1.726417529,-0.701793215,1.4078990935,-0.01911327,390.1393737,11.549077145,0.9237661695,0.127923699,13.837536665,92.251211665,96.30146611,2.88881655,28.306666665,27.731945,24.45916165,-11.99132,-35.668821665,-16.80044,-38.526588335,0.0357532235
6,3.25,5.3736127875,-0.249000398,0.325817142,-0.0200117355,389.8729822,11.323132255,0.86546289,0.1308854795,13.78086833,92.636663335,96.31095181,2.968346315,28.120833335,27.39375,24.230698335,-12.213431665,-34.837428335,-16.972115,-32.99541,0.0397277365
6,3.75,5.3131121355,-0.868402371,1.176078124,-0.022520629,390.1342502,12.00635379,0.903810245,0.138891317,13.799376665,92.578385,96.304843565,2.13798221,27.960273335,27.12125,24.054305015,-12.155198335,-33.913601665,-16.927735,-27.260346665,0.0337653665
6,4.25,6.948880692,2.519445505,1.0111647125,-0.0225729255,391.9310721,11.280845705,0.9080853345,0.13907949,13.709259985,92.51609167,96.31978368,2.746159765,27.802638335,26.865135,23.825415015,-12.041591665,-32.506576665,-16.67140833,-31.660115,0.24233946
6,4.75,1.509880892,5.2168964065,0.7615249765,-0.0150046495,391.0612294,11.11445618,0.685344336,0.113463531,13.652488335,92.178321665,96.33679746,3.358137575,27.79125,26.710001665,23.62334,-11.83498,-32.275948335,-16.824681665,-34.660285,11.6753281685
6,5.25,5.2243489735,4.515037468,0.5010573555,-0.0188230305,392.1068659,11.09813632,0.634558948,0.1272118035,13.624091665,91.046033335,96.346611645,3.349275165,27.6125,26.44263833,23.522088335,-11.562326665,-31.871398335,-16.650588335,-29.691576665,54.368773335
6,5.75,11.208646475,4.55485728,-0.471203012,-0.0233129515,392.9832741,12.75335195,0.746832405,0.1425156585,13.80425835,90.027338335,96.37107364,3.70116513,27.28708333,26.26930833,23.34472335,-10.69636167,-30.586531665,-16.184641665,-16.527813335,123.8049783
6,6.25,30.821132105,23.23655919,-2.106523164,-0.032647788,395.2283603,14.06178555,0.7123767785,0.1685301345,14.07480165,88.94588,96.393212255,4.38314943,27.2025,26.09764,23.273056665,-9.3931325,-28.30262667,-15.462786665,76.493614335,327.15746665
6,6.75,52.795311685,25.77852303,-2.4622398715,-0.035756553,399.019298,16.08727517,0.837240289,0.175626937,14.55478165,85.24451,96.40326691,5.73704999,27.026666665,25.85666667,23.280554985,-7.7244668335,-24.864591665,-14.32581,156.77286835,585.61706665
6,7.25,81.31930231,27.8784905,-3.229608933,-0.046452907,400.30616,15.960797495,1.206866012,0.201328423,15.4938033,80.06128333,96.42028981,9.95021322,26.82445,25.56055,23.5283367,-5.638448,-19.39938333,-12.63296,269.9526,833.9864667
6,7.75,129.9413935,40.55128635,-4.063545913,-0.0517748115,399.6852248,16.35793237,1.140316609,0.214252295,16.68531,72.78822333,96.431562405,12.64286918,26.70306,25.43944333,23.71639,-4.051260667,-13.434811,-11.001307,344.6416667,1030.5781
6,8.25,155.1810677,48.63162379,-4.029746027,-0.0714345265,398.0537102,16.01466429,1.6940120015,0.252563975,18.185595,66.56114,96.417022115,14.34506641,26.702083335,25.421808335,24.738476685,-3.165669,-6.4020076665,-8.3401316665,418.02911665,1237.0895
6,8.75,205.57059455,53.840366995,-5.072082669,-0.1290350655,396.9096347,15.37620016,2.021000912,0.3371209985,19.515661665,62.40630333,96.41788634,16.16393835,26.69791667,25.34027833,25.17361167,-1.4815639165,2.4139953165,-5.706003833,478.63261665,1421.2512
6,9.25,239.079055,63.79011853,-5.09646504,-0.140890643,396.3136308,15.53729542,2.706403914,0.355279672,20.58473333,58.70120667,96.40541331,16.02610126,26.64416667,25.24333333,25.58667333,-0.456422707,14.360697,-3.687726,524.5796333,1564.869667
6,9.75,262.2493178,68.31717703,-5.463669119,-0.169007321,395.2948609,16.253934865,3.360833039,0.388920996,21.32238333,59.22067333,96.40655609,15.858672125,26.45333333,25.22083333,26.46778,0.9227966,28.79258333,-2.297475667,576.1236,1708.508
6,10.25,297.9277417,71.733269155,-6.150978843,-0.234606349,394.5985631,16.88560366,3.460648076,0.458597799,21.98567333,57.34026333,96.39806723,17.15292019,26.41166667,25.29583333,29.08055667,2.265828333,44.07407333,-0.109635003,606.4444333,1823.539333
6,10.75,327.4657885,78.80813893,-5.967541534,-0.257922599,394.677141,17.05833177,3.768494666,0.478670849,22.58841667,55.10125333,96.39860511,17.69467011,26.40944333,25.44888667,32.54444667,3.20344,63.59804333,3.882222,630.2903333,1903.878333
6,11.25,343.9936487,81.66657625,-5.021706713,-0.283387941,395.6407042,16.7568497,3.923792084,0.508181723,23.15403,54.48499,96.40270514,17.84141761,26.41,25.70055667,35.86471667,5.853992,79.83889667,9.064354,646.6689,1950.522
6,11.75,375.3339344,90.08440197,-6.507113979,-0.265377721,395.3043859,16.90151522,3.94434438,0.491057325,23.31945,54.89000667,96.40574613,18.74275643,26.45083333,26.1675033,38.94917,10.15438133,87.83145,11.81164667,635.7395,1967.896333
6,12.25,361.1779456,70.22738443,-5.650949729,-0.288237338,393.3736662,16.99635023,3.904763892,0.507109714,23.03066333,51.44014,96.39592199,19.80993887,26.6825,26.8347233,41.91528,14.16504667,94.58348667,14.76292667,624.1595333,1957.936
6,12.75,365.6738469,60.37547133,-5.989816454,-0.286291703,392.8088855,16.91503767,3.790862905,0.504031824,23.29285,51.09705333,96.3868452,19.77388939,26.74167,27.40583333,44.545,28.72669333,98.94042333,22.29439,602.5772667,1928.303667
6,13.25,377.8892137,75.44332955,-6.008629429,-0.289642526,392.3628728,16.82006937,3.66342781,0.505913112,23.9349267,49.17875,96.37642032,19.28320936,26.945,28.17083333,46.81333,46.61367667,101.2477333,36.54815667,567.1673333,1861.431667
6,13.75,366.5706408,74.91278872,-5.587963203,-0.276080903,392.3958604,17.0033969,3.856685781,0.492956735,24.30387,48.28093333,96.36869651,19.21158564,27.2425,29.115,47.96999667,57.1139,100.4192333,51.17530333,526.1401,1769.532333
6,14.25,362.98540275,77.02307307,-6.053472702,-0.277119581,392.8230249,17.13909753,3.68355667,0.493205816,23.665721665,49.01806,96.35034953,18.56194483,27.55625,29.9425,47.700695,61.05195667,99.187976665,61.510045,478.27646665,1654.192
6,14.75,333.1609016,69.6445765,-4.977298558,-0.257754431,392.6198969,16.93783393,3.648569692,0.484631164,23.90462333,50.22958667,96.33526845,17.92850207,27.80778,30.82166667,47.49027333,59.93074,93.23416,67.629825,415.0680667,1503.685067
6,15.25,318.7301483,63.62811622,-4.490866175,-0.255606445,392.7281453,17.22046734,3.775976198,0.485674877,23.49094333,53.23289333,96.31981296,17.95141427,28.1625,31.65916667,46.50361333,57.232858335,85.81501333,70.225883335,353.2944,1357.315
6,15.75,287.3378499,52.47015143,-4.600146364,-0.245809195,392.7799722,17.00151359,3.724588384,0.473654255,22.70334667,54.82105667,96.27401322,18.91540889,28.5708333,32.34666667,45.23166667,52.00312167,77.34110667,70.164848335,277.7629667,1171.110667
6,16.25,237.9885348,42.76322032,-3.96656177,-0.231272721,392.8682205,17.30089465,3.576633671,0.451713055,21.85291,57.00542667,96.26822362,17.89394535,28.9475,32.74444667,43.78749667,46.49273833,66.01112,67.19385333,201.4347,975.0508667
6,16.75,201.7306727,32.09181063,-3.438885547,-0.203117276,393.2519259,17.94754242,3.533751851,0.425096983,21.45195333,59.29563,96.26252625,19.47516013,29.3666667,33.08444333,42.14861333,38.79229667,52.59078,62.42306,120.4675033,761.7084667
6,17.25,149.5140765,23.86178109,-3.220646651,-0.184639024,392.4579499,17.78166469,3.308869369,0.407397733,20.66394667,62.11013333,96.27149255,18.22398888,29.6133333,33.11,40.46694,31.40144333,39.86423667,55.72755667,45.32830333,549.0748333
6,17.75,99.61530391,13.973053795,-2.167843202,-0.146568961,392.0072802,17.87115007,3.205424031,0.362901218,20.17101667,65.75553,96.28531943,15.08272768,29.9083333,33.11,38.80805333,22.87654667,27.81321667,47.32259667,-21.36147133,338.8594
6,18.25,48.74605657,4.069777413,-0.711809817,-0.099631445,391.6354487,17.24771197,2.798981417,0.298442878,19.231834985,68.74958667,96.30271502,7.37936877,30.032083315,33.256113335,37.784448335,14.750958335,12.95338817,38.212918335,-70.603338335,153.361835
6,18.75,13.35165801,-2.058719996,0.849791114,-0.060983283,389.4440325,15.46822804,2.273702275,0.230300961,17.6803333,74.79606667,96.31878783,8.52446634,30.05083333,32.81777667,35.88666667,7.215905,-2.43122932,26.91854333,-90.83315333,24.35576333
6,19.25,-2.984832232,-3.003674846,1.581382249,-0.037456493,388.3341957,14.97241325,1.684744932,0.179804626,16.15711,78.59048667,96.34019607,6.80551073,30.095,32.71111,34.49250333,-2.044629567,-15.58101,16.88181667,-89.0529,0.717748027
6,19.75,-3.900619354,-4.22610918,1.70505049,-0.035208456,388.5994116,15.00742652,1.28897244,0.174627655,15.46099667,82.24093667,96.36551933,6.52087739,30.09583333,32.4425,33.05528,-8.397562,-22.52839,6.680328,-84.12088667,0.068861427
6,20.25,-2.952768459,-1.572914277,1.732062414,-0.020786981,388.8833888,14.51686994,1.015375351,0.134585209,15.0593,82.92744333,96.39118781,5.45326196,30.09083333,32.15666667,31.92305333,-11.11597667,-27.01926667,-0.434005747,-81.883,0.055618867
6,20.75,-2.961460114,-1.412150487,1.598765416,-0.013982653,388.2513668,14.43573401,0.848974298,0.109543801,14.65312333,82.98575,96.39188748,5.04181086,30.07916667,31.83777333,30.85639,-12.85073667,-29.70388,-5.53918,-76.66604,0.048997553
6,21.25,-1.829835239,-0.806457497,1.429928789,-0.013065773,389.9723813,14.05048246,0.95163398,0.106703242,14.58888,86.00749667,96.39382095,4.96884718,30.035,31.465,29.8975,-13.76189333,-32.59366333,-8.404226667,-74.58500667,0.051646073
6,21.75,-0.885431191,-0.748517832,1.377156371,-0.011441582,389.8511916,13.9544632,0.746311457,0.101143181,14.59612,87.00027333,96.40334504,4.407738,29.86833333,31.14389,29.09583333,-14.27925667,-32.99247667,-9.902111333,-73.37468,0.04899758
6,22.25,-3.536678685,-3.100069745,1.287071742,-0.0138932,389.9806796,14.09628217,0.850273447,0.110499363,14.8684933,85.82356667,96.39561662,4.01115274,29.7075,30.73055667,28.63583333,-14.26264333,-34.53618,-12.06127667,-72.13604667,0.04502482
6,22.75,-2.453976276,-1.314379556,1.0472657405,-0.01334429,390.34213525,13.71222439,0.861006507,0.107045476,14.8173333,84.83346667,96.37061758,3.78148032,29.51916667,30.35666667,28.02694333,-14.38703333,-35.93338667,-13.38468667,-69.68898667,0.043700493
6,23.25,-2.200743638,-0.928124321,1.128001988,-0.009196029,389.9977197,13.59053605,0.718355171,0.088918368,14.80325333,85.1629,96.3595104,3.57824796,29.50916667,30.03,27.36083333,-14.61491,-37.17390333,-14.33872,-67.18101667,0.048997553
6,23.75,-3.426564883,-1.7451512705,0.993045938,-0.012620585,389.259069,13.35519847,0.669641129,0.105455136,14.5617967,87.36852,96.3390324,3.54879341,29.2925,29.69916667,26.63722,-13.87034,-37.86897667,-15.56990333,-61.32121333,0.042376273
7,0.25,-3.3363130255,-0.509436744,0.960017351,-0.0105134505,383.3016755,15.901524225,0.581641531,0.0963169165,18.18913,79.69714,96.528746355,4.05231879,33.11,33.786113335,29.814583335,-13.572865,-35.37050167,-15.76382,-58.9231,0.0483354335
7,0.75,-2.2926457295,-0.2408921685,0.67163745,-0.0111820175,384.0845768,15.69830328,0.703261753,0.0986506965,17.854035,80.257388335,96.516707765,3.672810315,32.934581665,33.403748335,29.331666665,-13.372351665,-34.952775,-16.01497,-57.48514667,0.0503218065
7,1.25,-3.291167667,0.8223009865,0.770098144,-0.013208049,384.5445943,15.68136869,0.714481439,0.106645471,17.878478335,80.038746665,96.5012528,4.08862216,32.708055,33.09944667,28.799583335,-12.90620667,-34.519221665,-16.362901665,-57.104961665,0.0463490435
7,1.75,-3.466848539,-1.388179815,0.761681185,-0.0149489185,384.94112105,15.60495699,0.6411371115,0.1146301685,17.506896665,79.83637,96.48992565,3.87400251,32.6875,32.728888335,28.470416665,-12.602735,-34.0732,-16.721803335,-52.80115833,0.0489975465
7,2.25,-2.9290011685,-1.281413551,1.034928974,-0.0166322675,385.0336296,15.51855394,0.7384422185,0.120496572,17.772145,82.796565,96.477968195,3.490321075,32.649166665,32.492916665,28.120971665,-12.507355,-34.09804833,-16.90923167,-53.28926,0.0450247765
7,2.75,-1.9205291365,1.4390545915,0.95540311,-0.015508143,385.3937643,15.710172575,0.7048891245,0.116799912,17.564616665,85.013545,96.46923625,2.95908889,32.486666665,32.17375,27.868195,-12.29452167,-33.961905,-17.08359667,-52.114675,0.0476733
7,3.25,-3.438436964,-0.360644471,0.620324398,-0.01355592,385.65412415,15.69843798,0.720011033,0.109943401,17.673285,84.398133335,96.472972915,3.10553829,32.262916665,31.922081665,27.57541667,-12.707905,-32.682321665,-17.093198335,-52.62197,0.0470111665
7,3.75,-4.3723574455,-0.1302139005,0.460355391,-0.014439535,385.36296005,15.363135945,0.687296524,0.112466774,17.851313335,80.839291665,96.494164435,3.887351485,32.110833335,31.593331665,27.160833335,-12.52459,-32.29956,-17.153065,-50.81031,0.048335417
7,4.25,-2.6726123875,-0.22978821,0.4392250525,-0.0141939785,385.56538755,15.32436029,0.555139041,0.1104682885,17.41258833,84.052768335,96.510970245,3.322865065,32.07723,31.375416665,26.888055,-12.24170333,-32.21468333,-17.11805,-51.04561167,0.07415848
7,4.75,-4.9010029725,0.233121131,0.524963987,-0.0166869405,384.14442465,15.23808086,0.7960075495,0.1210916915,17.33114,82.179853335,96.522491285,3.15099747,31.81444,31.10917,26.55,-12.29316167,-32.210095,-17.37681667,-49.878696665,4.65873995
7,5.25,-3.197044299,0.919851023,0.449081296,-0.014075039,384.52159935,15.47249441,0.622893876,0.1105839575,17.503355,79.45415,96.538653695,3.707465175,31.64611,30.782776665,26.39611,-12.005406665,-32.126895,-17.382245,-40.26582,39.739686665
7,5.75,1.5739392665,6.890452838,0.0383986805,-0.01712273,385.3890446,16.00691198,0.6098107115,0.122730755,17.68370167,85.97492167,96.564386705,2.77391952,31.50458333,30.62875,26.225835,-11.090988335,-31.663356665,-16.95771833,-21.387376,92.782838335
7,6.25,30.219447865,14.28013998,-0.748260381,-0.026640312,387.4219645,17.82772095,0.551350794,0.153522806,18.10695,84.95835,96.59649828,3.63716373,31.40416667,30.3375,26.155,-9.956035333,-30.07990333,-16.54817667,54.28229667,308.4079333
7,6.75,59.77280189,25.23634037,-2.153156824,-0.035379665,390.5091544,19.76059826,0.753109127,0.178356279,19.69379333,75.96262333,96.6129277,6.64513709,31.30333333,30.11583333,26.15666667,-8.290359,-26.88464333,-15.78863667,158.0938667,545.1048
7,7.25,99.30094129,27.50606003,-2.387338974,-0.0448045935,391.5879468,20.44291649,1.1384457605,0.200706414,20.85821667,71.63893167,96.616707275,8.275953775,31.207083335,30.010833335,26.425,-6.6984775,-22.43558,-14.210266665,242.54475,764.32911665
7,7.75,135.7115233,35.390256405,-2.6193323555,-0.066408733,390.8711668,20.90905518,1.451341217,0.243693366,22.223436665,66.869935,96.629377525,10.72774913,31.06208667,29.8125,26.838051665,-5.6078575,-15.870036665,-12.138285,320.54825,962.9354667
7,8.25,175.4666536,37.09907023,-2.57746303,-0.104231066,390.2893591,20.09087185,2.0798753075,0.3046011695,23.81116,60.712008335,96.626155575,13.001918215,30.81777333,29.646666665,27.31041667,-4.302767167,-9.5121106665,-10.78498,392.4467833,1170.2813335
7,8.75,204.38241335,44.922202445,-2.689284774,-0.1340869165,388.4197156,19.62002426,2.462175525,0.348609293,25.05239667,54.51939,96.616715115,16.117237515,30.71111,29.514166665,27.75902667,-3.0148095,-0.6154522515,-8.7450426665,448.7428,1336.089
7,9.25,252.630313,41.8777282,-2.9086189575,-0.163756754,387.39084565,19.43060244,2.7575283065,0.382945045,25.88099,50.853405,96.601679045,18.476767715,30.70875,29.51,28.32708333,-1.3762226335,12.113199835,-5.9672825,501.1666167,1497.84035
7,9.75,281.6226373,46.354334735,-3.1715040775,-0.207505489,387.0293099,19.69185982,3.1449282675,0.4323208965,26.68649167,50.19465,96.620021235,18.87657017,30.680416665,29.509583335,29.109166665,-0.0029403485,27.104201665,-3.4212826665,545.2164333,1642.5788335
7,10.25,321.988365,61.10062952,-3.6064263935,-0.2598904165,386.6917595,19.82196973,3.466343482,0.4868981775,26.962815,48.203706665,96.61399755,20.41901778,30.516666665,29.49625,31.69291667,1.6189664165,42.83204,-0.78499385,579.6071167,1746.4643335
7,10.75,341.1181882,49.41450927,-3.539783886,-0.276287363,386.6493806,19.971449215,3.758971793,0.501484868,27.48459,46.35422,96.60118544,21.934827975,30.41,29.51,34.81888,3.255234,59.45679667,1.860730133,603.9522667,1838.592
7,11.25,368.435308,42.9646809,-3.504549326,-0.293886327,386.6752619,19.81951028,3.80986173,0.518521807,28.08392,45.15669667,96.59029605,22.31909828,30.41,29.63583333,38.01278,5.579416667,71.60840667,6.918677667,620.1015,1909.621333
7,11.75,407.060719,52.57877179,-3.422004726,-0.318244878,386.569916,20.17397845,3.811214756,0.536717634,28.28393,44.64581333,96.58628024,22.964185735,30.41,30.00833333,41.30972333,9.910903667,79.98292667,10.93298967,622.9222,1941.276333
7,12.25,412.9473979,61.896440915,-3.561040427,-0.341247041,386.0873016,19.97916418,3.905750593,0.555033333,28.72895667,44.41459,96.55825376,25.07541905,30.41083333,30.43333333,44.17110667,13.01349333,86.44366,14.81437333,615.2611667,1933.022
7,12.75,428.3619679,47.8393139,-3.807958823,-0.336734437,385.6756636,19.3894934,3.958861979,0.552359778,28.93181333,41.65911,96.54589749,25.51852866,30.565,31.12139,46.79083667,24.45525667,89.97246,22.31737667,590.0979,1894.847
7,13.25,418.0334064,46.94419858,-3.803211406,-0.3346562925,385.3567021,19.07200309,3.926519172,0.553583364,28.68312667,41.67474,96.52732562,24.11294526,30.70333333,31.7675,48.95389,24.97307667,91.50979333,34.25374,563.1807667,1838.429667
7,13.75,400.6942391,44.41646585,-3.32268999,-0.311006182,385.6873213,19.3058264,3.816169273,0.531781328,28.37283,42.17313333,96.5087682,24.1481648,30.78778,32.54805333,50.55805333,28.46116333,91.00022,46.08161667,520.678,1757.152667
7,14.25,400.1934828,40.906963365,-3.464633572,-0.303323438,385.6371835,18.94552345,3.810547599,0.525707629,28.36956,40.35207,96.49075299,24.9934268,31.15639,33.39861667,51.52555333,31.6507,89.54426,54.86429,469.8752333,1639.272
7,14.75,366.7964994,39.311293465,-2.997669923,-0.298488433,385.3679182,18.99321944,3.8400964,0.520580196,28.23910667,43.11400333,96.46641962,23.8901199,31.38166667,34.26111667,51.30111,32.83551333,85.95105,59.41813667,409.6000667,1505.448667
7,15.25,331.6716315,36.72549728,-3.106625181,-0.285133312,385.4996472,18.6250336,3.778477272,0.511109504,28.07515,44.10855667,96.43482028,23.33986535,31.60444333,34.99916333,51.075556665,33.092,79.76856,61.10471,344.1610333,1351.133333
7,15.75,312.6580728,37.77631866,-3.001693389,-0.279999474,385.6232664,18.84545876,3.673255144,0.506669411,27.60782,44.25396,96.42204457,21.96229706,32.00999667,35.66444333,49.87166333,32.63524,72.04083,60.75271333,277.3432,1174.093667
7,16.25,268.8818253,28.97079793,-2.988968505,-0.257290118,385.7708588,19.02774693,3.630587295,0.48097238,27.03706333,46.22769333,96.40678845,20.803976465,32.21666667,36.32111,48.17611667,31.5695,62.34757333,58.64626333,199.0753333,967.4256667
7,16.75,220.59554,20.49586904,-2.637494,-0.226496182,385.6392878,19.11394834,3.43524203,0.453478328,26.48011,49.78931667,96.41013396,20.08149723,32.58416667,36.68777667,46.60333333,29.52125667,49.59077667,54.87388667,122.71826,756.5201
7,17.25,169.0298929,16.12465193,-1.967672631,-0.196105244,385.1709054,19.47122348,3.274948909,0.422075796,25.92529,52.81667667,96.40090945,18.61809251,32.69833333,36.96138667,44.8625,24.98472667,37.44747333,49.46173667,49.18957733,542.2642
7,17.75,120.6096883,9.982534996,-1.434797995,-0.167356438,385.1039514,19.5026662,3.162296722,0.387759605,25.30257667,54.89610667,96.39444044,16.64034582,32.95277667,37.28916667,43.22805667,19.21023,27.10106,41.99487667,-16.09605633,332.7743667
7,18.25,60.02819843,0.416965759,-0.550700445,-0.127204812,383.8556633,18.80797478,2.937350644,0.338016282,23.74839667,60.54143333,96.40855637,12.77859787,33.13083333,37.39193667,41.81417,13.12655867,15.49747567,33.21747667,-61.95493667,147.9502233
7,18.75,19.37854183,-4.373158865,0.438535518,-0.084346845,381.6103091,17.9967719,2.522956908,0.274403694,22.33301667,66.02829,96.42768787,9.31365458,33.39416667,37.13777667,40.42667,6.643346,1.5616443,24.44882667,-82.29076333,30.48047367
7,19.25,-1.534279065,-4.700182452,1.082420355,-0.054125574,381.0277439,17.45871685,1.9945408,0.217663227,21.05668333,72.37378333,96.45146936,6.90374704,33.41,36.91,38.90639,-1.639322303,-9.221089667,14.97397333,-82.9144,1.247451853
7,19.75,-2.818375428,-5.419946232,1.222795629,-0.034141182,381.0252857,17.23337435,1.554159732,0.173045294,19.88845333,76.96598667,96.4811817,5.52512442,33.41222,36.79999667,37.54639333,-7.539229,-18.14914,6.835503333,-78.58876667,0.06753716
7,20.25,-2.438506836,-3.327164384,1.391994498,-0.021292003,381.0654414,17.15131163,0.917975992,0.137002697,19.27037333,78.68143,96.50697633,4.38388177,33.42110667,36.51444333,36.26556,-9.605909333,-23.81796,0.485765497,-75.41686,0.063564407
7,20.75,-3.347882337,-3.062429744,1.328293767,-0.014988595,381.7655224,17.12952943,0.621146677,0.115034726,18.83284333,80.53498667,96.53385135,4.13939626,33.42444,36.26222,35.13333333,-11.41249333,-27.59386667,-3.869994333,-72.94869,0.0582674
7,21.25,-2.631487515,-2.048670831,0.983770736,-0.013482644,382.3131386,16.80364524,0.701751657,0.10853432,18.68615667,81.37563333,96.54846333,3.83105676,33.42027333,35.94222,34.13556,-12.38878,-30.10300333,-7.149964,-71.02788,0.05561884
7,21.75,-3.572918646,-0.782032292,1.0839164665,-0.009693826,382.566998,16.58937599,0.616054006,0.091933274,18.46348667,81.41125,96.5672805,3.84242702,33.41111,35.60445333,33.19971667,-12.99538333,-31.71522667,-9.373754333,-68.26325667,0.055618847
7,22.25,-2.701723585,-1.08978389,1.09233413,-0.009076435,382.6768557,16.65838965,0.689047715,0.088712677,18.39778667,80.77109667,96.56430979,4.00629259,33.41,35.24999667,32.395,-13.31179333,-32.96277,-11.60904333,-66.18895667,0.048997567
7,22.75,-4.646322029,-1.300440442,0.968284211,-0.011603355,382.0822536,16.23856891,0.852091872,0.101310126,18.34148667,80.42433667,96.55980326,3.81843537,33.40916667,34.89111,31.62361333,-13.25446333,-33.76699333,-13.65678333,-62.58241333,0.048997607
7,23.25,-5.362870597,-1.996099142,1.209304568,-0.011419263,383.1126925,16.52033726,0.774843266,0.099417087,18.47834333,80.62316333,96.55446456,3.59917841,33.4,34.55388667,30.97944333,-13.39470333,-34.44305667,-14.58783,-62.17896667,0.048997547
7,23.75,-3.876637883,-0.994338404,0.891924874,-0.012212756,382.5060363,16.31978367,0.647710032,0.104123123,18.43547333,78.31046333,96.54366772,3.96619532,33.23,34.21889,30.33916667,-13.0102,-34.95941,-15.20978667,-60.52585667,0.04899756
8,0.25,-2.6654457875,-1.858107618,0.7649994825,-0.012054439,386.9618122,17.45845127,0.755044438,0.1022589125,17.46166833,88.74129,96.442417005,2.170180365,32.709445,33.23458333,29.021666665,-10.31762667,-36.47941667,-17.179361665,-59.567373335,0.045024783
8,0.75,-1.6650318565,-0.201863283,0.6005501135,-0.0130122975,387.19073625,17.318076165,0.6361598695,0.1065767455,17.361371665,88.975345,96.422932575,2.13967272,32.7025,32.87778,28.55125,-10.482455,-35.434516665,-17.13193,-57.74683,0.04767333
8,1.25,-2.1933607375,-0.875264094,0.580381201,-0.0135083945,387.3826011,17.326508415,0.6964294465,0.108770619,17.213773335,88.734426665,96.405911395,2.16642156,32.67125,32.59583333,28.11319333,-10.412506665,-34.30502,-17.093243335,-56.814016665,0.0443626535
8,1.75,-1.3719926355,-0.631269834,0.5553821985,-0.0114214635,386.8313767,17.364104385,0.58827591,0.099898507,17.17622333,88.971938335,96.393177665,2.080103305,32.48875,32.25083333,27.72028,-10.35246,-34.39675,-17.089081665,-53.440138335,0.0450247835
8,2.25,-2.571876808,-0.2929123835,0.627665638,-0.013480667,387.6131398,17.35886206,0.6373112665,0.1087059705,17.198048335,89.686596665,96.37940195,2.015430755,32.29208333,32.052223335,27.389583335,-10.306206165,-34.062883335,-17.175201665,-52.31087167,0.0450247435
8,2.75,-1.219067164,-2.177096432,0.455282576,-0.0133195705,387.2667421,17.28288575,0.689261893,0.108434121,17.222385,89.17413833,96.37082493,2.15725659,32.115833335,31.66375,27.029583335,-10.1662656665,-33.88374,-17.375648335,-50.97294,0.0423762735
8,3.25,-2.174452199,-0.951726856,0.497183344,-0.015417397,386.9209313,17.02753724,0.7041169475,0.116914799,17.32436833,89.489993335,96.36366143,2.096400065,32.107225,31.39875,26.689858335,-10.0381858315,-33.93441167,-17.31155833,-49.40880333,0.04237627
8,3.75,-1.238972242,-0.397954124,0.5571441835,-0.0190813705,387.9001643,17.051216535,0.6971168585,0.1288886495,17.151456665,89.719826665,96.371363,2.02663505,31.88944,31.108888335,26.403058335,-9.974403665,-33.542395,-17.3835,-48.065833335,0.0430384035
8,4.25,-1.3936602195,-0.49553721,0.701631032,-0.019456377,388.84638775,17.08636717,0.6882163005,0.1300051765,17.145723335,89.977478335,96.377216725,1.911306295,31.709166665,30.76388667,26.10625,-9.885291333,-33.036463335,-17.37628333,-46.499545,0.0384034835
8,4.75,-1.717779479,0.298730019,0.605925848,-0.0152241565,388.26060305,17.050354715,0.6701048995,0.1153615345,17.188373335,90.671625,96.399620195,1.776306045,31.494166665,30.53833333,26.00583333,-9.923744,-32.407171665,-17.33623,-45.86607833,0.2780945365
8,5.25,-1.0159406675,-0.217358068,0.5493319715,-0.0202995795,388.1843725,17.12091393,0.7096752605,0.1330261,17.027638335,91.170991665,96.42155746,1.70057709,31.40583333,30.2875,25.751803335,-9.9364651665,-31.728188335,-17.21853,-37.394445,13.871611165
8,5.75,1.5232354195,2.352882857,0.217627183,-0.019210425,389.13719635,17.1857894,0.719186082,0.1295539145,17.216645,90.86019833,96.439665815,1.826599705,31.384166665,30.08875,25.52249333,-9.8657288335,-31.15109333,-16.9358,-22.97022,64.17093833
8,6.25,16.86346042,5.750120317,-0.2748211865,-0.024165373,390.3545986,18.04354561,0.5211802115,0.145577088,17.387991665,89.274138335,96.46987764,2.2425139,31.182083335,29.840416665,25.495828335,-9.663301667,-29.24137167,-16.34224,16.59329467,180.5097667
8,6.75,54.167022535,17.819863125,-0.970286305,-0.032999743,394.08142935,20.093252035,0.5670035225,0.171198264,18.45791667,84.964383335,96.50111394,3.42874893,31.068196665,29.64291667,25.519721665,-8.6794941665,-26.47350833,-15.581756665,111.1920755,457.1467667
8,7.25,79.176272645,18.836508685,-1.543271442,-0.046093353,394.7355342,21.333899415,0.752478547,0.203397393,19.868906665,79.387386665,96.51438691,5.462981285,30.793331665,29.5125,25.62597333,-7.674199,-22.721155,-14.584715,207.98453335,668.42165
8,7.75,123.66050225,23.49017361,-1.758587036,-0.0622023035,394.4449404,21.47763578,1.195748182,0.2361794345,21.21098167,74.165231665,96.507952265,7.498356895,30.709166665,29.347916665,26.132085,-5.9061268335,-18.985978335,-12.956543335,293.25406665,880.3952667
8,8.25,168.78916005,29.85003269,-1.897537238,-0.0867779935,394.62956315,21.51999464,1.5338164885,0.279175042,22.692093335,68.079156665,96.51877752,10.104030425,30.69458333,29.20625,26.649303335,-4.6654398335,-13.83849,-11.01279,366.21645,1112.0568335
8,8.75,194.8148441,29.16276542,-1.84984996,-0.110426498,394.5084564,20.972847005,1.922300875,0.313690444,23.96219,62.64911,96.51225014,12.65064668,30.4675,29.08583333,27.0325,-3.962939,-6.265917567,-9.411707333,428.2795333,1297.996933
8,9.25,235.7604593,28.62617321,-2.103030588,-0.151906177,392.8161056,19.77723593,2.329909512,0.372235146,24.71947667,57.21796667,96.51027841,14.29601832,30.41,28.99,27.63333333,-2.787616333,4.177637763,-6.842776667,483.4133667,1469.285667
8,9.75,280.9116804,30.31669106,-2.2974539395,-0.181751788,392.1699562,19.758163045,2.954946394,0.405967975,25.807955,53.539211665,96.491947905,17.2817818,30.4025,29.06875,28.216665,-2.209171333,19.917366665,-4.011781167,531.1978,1617.6591665
8,10.25,313.60254635,35.87297329,-2.6384198595,-0.2330756195,392.40924615,19.779481155,3.292665945,0.45789179,26.581366665,50.848093335,96.48624351,19.76074804,30.27,29.09375,29.458333335,-1.47099095,37.797515,-0.4858703705,567.54606665,1731.693
8,10.75,355.78025105,32.29380848,-2.683311676,-0.2821531475,392.26520295,19.83480068,3.6250451045,0.5038935735,27.138983335,50.376758335,96.476069575,20.452528465,30.110833335,29.1525,31.26597,0.3618811085,54.562415,2.9105863335,592.34058335,1831.5053335
8,11.25,395.0622436,30.14207012,-3.004424593,-0.3222564,392.6777035,20.21293433,3.78784253,0.54129237,27.38632333,49.76957333,96.46114886,21.06190705,30.0975,29.21083333,34.23416667,2.619115163,66.03531667,6.442294667,606.7658667,1881.260333
8,11.75,401.3849622,28.91166652,-2.826546125,-0.3199927065,391.8683873,20.179628945,3.919545698,0.540988878,27.672601665,48.592788335,96.449405155,21.74247912,30.09041667,29.46875,37.870546665,6.7736245,75.35493833,9.692647833,607.46063335,1922.193167
8,12.25,414.1128128,24.698908325,-2.979452978,-0.328893897,391.4742139,20.151598855,3.9290589425,0.547849052,27.80681,47.44788,96.42846919,21.798003265,30.0975,29.845,41.284998335,10.345329165,81.338738335,15.59731667,598.96623335,1913.989667
8,12.75,422.5379693,22.39795761,-3.01111319,-0.3397468295,390.8121917,20.010605445,3.9278492805,0.553702325,27.925023335,46.490648335,96.414989945,22.07364071,30.109583335,30.35333333,44.053331665,16.00351333,85.203895,25.73666,575.7883333,1870.5866665
8,13.25,412.6540952,19.90687146,-2.929550332,-0.31633895,390.3197183,20.01902755,3.7372875275,0.536229912,28.19211667,46.655801665,96.398674615,23.46353112,30.339583335,30.99,46.439581665,21.510835,86.381745,38.18002,545.36636665,1801.7469665
8,13.75,412.8632763,15.169545425,-2.929166269,-0.3224422795,390.1145973,20.136298485,3.7843030375,0.541045936,28.240941665,46.76360333,96.37675122,23.52217394,30.452916665,31.75236,47.73180667,26.152581665,86.44219667,48.012661665,499.89981665,1725.5045
8,14.25,396.7797012,24.41828077,-2.609847809,-0.317744332,390.03272945,19.97303683,3.866888323,0.5369764065,27.92776167,47.551311665,96.35289671,22.92465851,30.685416665,32.48069333,49.089028335,28.863633335,85.000873335,54.577138335,450.02643335,1580.451167
8,14.75,381.4787077,15.71852815,-2.668391051,-0.314733445,389.63397715,20.08866922,3.850751283,0.539451056,27.784215,47.81659833,96.341680205,21.727913865,30.983331665,33.23569667,49.492501665,30.150406665,80.34527,58.50357833,387.9643,1421.760667
8,15.25,331.49433895,13.968020375,-2.387001512,-0.2932427515,389.2602466,20.011694985,3.8226947635,0.5176452095,27.44675333,48.551991665,96.328313095,21.01232844,31.3375,34.04722,49.456531665,30.444671665,72.633266665,59.452493335,319.1906,1253.2848335
8,15.75,317.56655405,10.435338055,-2.280094464,-0.2914341355,389.14491895,19.91693791,3.7192901675,0.514035523,27.023283335,49.891135,96.317925735,19.88943751,31.559583335,34.74388833,48.41236333,29.430608335,63.070048335,58.185481665,246.0553667,1070.2030835
8,16.25,262.2793177,6.714620001,-2.074446565,-0.261006025,389.142986,19.93202951,3.7812834675,0.487457656,26.33754167,52.033116665,96.30604014,18.244443635,31.961666665,35.24055,46.773196665,27.206333335,52.47180833,55.07081,172.51633335,865.99908335
8,16.75,207.13663205,5.621342608,-1.7629262175,-0.2472007765,389.46223805,20.35548395,3.7256949455,0.4722424875,25.58046,55.248026665,96.30153977,16.814642765,32.183333335,35.661668335,44.869305,24.801191665,41.142086665,49.902011665,91.834556665,639.04365
8,17.25,154.8343773,2.3616605905,-1.3342978285,-0.2127618915,389.73143585,20.865729145,3.4909513135,0.4364876205,24.566536665,58.89622167,96.32134313,15.10800844,32.549166665,36.01778167,43.18514,19.26146,29.16789167,41.27366333,17.585116685,421.97515
8,17.75,89.86579115,-2.3493311255,-0.6460958125,-0.183038912,389.1661375,20.352293485,3.2482645605,0.40464069,23.485095,62.65688,96.31673594,12.21647069,32.698333335,36.11666,41.67945,14.662631665,16.625949165,30.604435,-44.68475467,224.24466665
8,18.25,32.227172615,-5.915408627,0.1504761475,-0.1253792935,387.50823195,19.186870525,2.937958362,0.333606888,22.20557,68.79058,96.307651955,8.616999485,32.742776665,36.19055,40.20375,9.313576667,4.8541401335,20.44510667,-81.23322,61.10660167
8,18.75,3.179787372,-8.457193303,0.8495797065,-0.0897953555,386.24955135,18.285251395,2.399024848,0.2811955505,20.72014833,74.902613335,96.32843813,6.25573159,33.065696665,36.170555,38.604446665,1.9062657235,-6.938476,12.05273933,-86.105746665,4.0197884
8,19.25,-3.399849112,-7.651231629,0.913292544,-0.0491219535,386.37945695,18.188457845,1.8631720185,0.207545619,19.74480167,77.74171167,96.36618697,5.004475055,33.11125,36.11,37.21444,-1.97270493,-17.36264333,4.8126408335,-84.328615,0.0821040265
8,19.75,-4.0481414195,-8.2417976425,1.036414236,-0.033586323,386.70045065,17.842836895,1.4745626055,0.171534623,18.955555,80.014426665,96.39635372,4.3270543,33.1675,36.03055833,35.888326665,-4.421678667,-24.530876665,-0.983864665,-81.727093335,0.0549567265
8,20.25,-4.071901261,-6.2181107595,0.9804314215,-0.0240218245,386.22708725,17.945160345,1.2657830755,0.14559042,18.563936665,82.512286665,96.422703815,3.69183724,33.25,35.721666665,34.887916665,-5.992753,-28.9444,-5.116561,-78.375768335,0.050321837
8,20.75,-4.6758476035,-4.4646220755,0.95715031,-0.0175143575,386.1821921,18.049246345,1.0805615775,0.123137335,18.40584,84.95597667,96.449765515,2.93819032,33.281666665,35.462773335,33.886381665,-7.0407933335,-31.574065,-8.5051635,-76.75071833,0.04965967
8,21.25,-3.089201379,-4.40605294,1.030145494,-0.0135769795,386.2733251,17.902200945,0.743370505,0.1094678245,18.201068335,86.02563333,96.465017175,2.699326985,33.255833335,35.18111,32.96236,-7.8098476665,-33.83878333,-11.116947165,-73.30656,0.04767329
8,21.75,-4.1024973485,-3.5773392875,0.771712123,-0.009726713,386.3282514,17.72743042,0.8582363885,0.092014351,18.049786665,86.555278335,96.472964595,2.74813101,33.17375,34.88791667,32.185143335,-8.6196691665,-35.44677667,-12.710643335,-70.32486,0.05297032
8,22.25,-4.1741080715,-1.9518920125,0.697979555,-0.009715204,386.5748235,17.435350045,0.798374465,0.0921863655,17.910611665,85.74301,96.46177525,2.654632955,33.114583335,34.60402833,31.338193335,-9.275863333,-36.34824167,-14.104435,-68.51655,0.048335423
8,22.75,-2.996275109,-2.571967833,0.493215227,-0.0069972785,386.2794955,17.47598443,0.706674552,0.078025075,18.021756665,86.04918333,96.459684585,2.529028395,33.107223335,34.231668335,30.62291667,-9.7022585,-37.214093335,-15.289271665,-64.607785,0.04701118
8,23.25,-3.827641186,-4.774953388,0.907690045,-0.0125017505,387.0861554,17.32477922,0.6086370795,0.1045178365,17.747095,86.334773335,96.46230193,2.52382988,33.003746665,33.846116665,29.949166665,-9.9158863335,-37.74878333,-16.319151665,-63.45190833,0.0450248
8,23.75,-2.8278864405,-1.1879813705,0.4511351645,-0.0102291085,387.39725055,17.63322121,0.7027908245,0.0941977725,17.571231665,86.97463,96.460374675,2.44079506,32.742915,33.459165,29.4975,-10.1478965,-37.67686833,-17.072688335,-60.715096665,0.046349063
9,0.25,-6.127204434,-0.4557445265,0.426407627,-0.017180606,390.442862,14.94610059,0.912634136,0.12185688,19.65303667,77.03366333,96.43242136,4.79260749,30.40083333,30.06666667,26.75222,-8.543224,-31.90701667,-15.26523667,-55.18417,0.042376267
9,0.75,-6.4476133,-0.79456548,0.5783739525,-0.015653832,390.7071913,15.20590663,0.91759274,0.116952304,19.62228,72.90530667,96.42234233,5.24947362,30.17,29.80333333,26.47611,-8.741466,-31.29436,-15.75807,-53.83183667,0.046349033
9,1.25,-4.441488574,-0.451749966,0.945856446,-0.016042496,390.5646984,15.05473106,0.950010256,0.120228236,19.19288,74.95377,96.41822407,5.51436722,30.08916667,29.54166667,26.20639,-8.718849333,-31.23018333,-15.86739,-52.45263333,0.04502478
9,1.75,-7.707713389,-0.481145316,0.683432828,-0.012669293,390.409827,15.04911939,1.022956555,0.106345091,19.26992333,75.29241667,96.41704699,5.34073522,30.0675,29.29166667,25.86111,-8.758995333,-30.45730333,-15.90945,-52.34037333,0.045024773
9,2.25,-10.0224292265,-1.111844604,0.701977519,-0.014969369,390.63176655,14.94285446,1.003388449,0.11464329,18.83362,73.30466667,96.41074559,5.64690524,30.0625,29.01416667,25.50666,-8.976914,-30.01115333,-15.91514333,-53.17700333,0.04502476
9,2.75,-8.146262051,-0.243385273,0.545371142,-0.013770866,391.39144325,14.71042406,0.901615598,0.109273845,18.55786,75.67972667,96.40754517,5.79149536,29.85833333,28.855,25.21833333,-8.756393667,-29.58080667,-15.81984,-51.74696,0.045024773
9,3.25,-7.647466094,0.477567789,0.7941730365,-0.019130587,391.64048795,14.41033008,0.901817247,0.129136006,19.42440333,74.72282,96.39394568,5.63012812,29.7675,28.60416667,24.95777333,-8.913812667,-29.28734667,-15.81701,-52.33413667,0.038403513
9,3.75,-4.984000692,0.713720686,0.462120617,-0.011734963,391.28256955,14.49602236,0.948894627,0.101689174,18.97255333,75.67219333,96.39785655,5.43994231,29.5925,28.365,24.75138333,-8.947626,-29.4048,-15.87561,-50.27038667,0.048997553
9,4.25,-6.775516725,0.1915501825,0.5474689685,-0.0164999655,391.2148056,14.348907805,0.874301324,0.123851346,19.40519,77.06144667,96.40346012,5.43630906,29.51,28.2175,24.56333333,-8.789528667,-29.33369667,-15.98756,-48.88016333,0.046349053
9,4.75,-5.260552215,0.475204231,0.595720396,-0.01130651,390.3572709,14.33235841,0.906707219,0.099849652,19.25692,76.14752667,96.39763272,5.2320687,29.448333335,27.99860667,24.45833,-8.851387333,-29.39550333,-15.76956333,-48.29825333,0.046349073
9,5.25,-6.387562546,-0.031047431,0.682749321,-0.016211555,392.1652275,14.08185755,1.002198125,0.119311785,18.97304667,77.56050667,96.4119697,4.21545353,29.251666665,27.84111667,24.26139333,-8.76906,-28.74688333,-15.44118333,-49.56328,2.690894627
9,5.75,-5.273857331,2.394075898,0.422908947,-0.015406546,392.2942803,14.28535971,0.829394436,0.115981128,19.05505333,77.49764333,96.43326101,4.94155076,29.179166665,27.77583333,24.13083333,-9.009257667,-28.56179,-15.58149333,-34.15610333,37.55863333
9,6.25,-0.730143297,2.461038708,0.157873123,-0.018323203,392.29628015,14.50636308,0.850496392,0.126316939,19.08455333,77.28780333,96.45716281,4.72347999,28.939166665,27.50916667,24.04333333,-8.68594,-28.10603667,-15.40523333,-19.54573667,89.18223
9,6.75,10.37855765,9.502560979,-0.18930741,-0.020907246,393.2798976,15.54072856,0.882935144,0.135948402,19.95072333,74.09322333,96.4983213,5.63544397,28.90083333,27.375,24.05277667,-7.737811,-25.89436667,-14.81384333,37.20664,219.9131
9,7.25,46.39089007,25.64717616,-0.6549345575,-0.036762981,397.2565729,16.92664113,0.915066998,0.179000472,22.02497667,65.63782,96.52850638,8.06073226,28.8925,27.21416667,24.2725,-6.383923333,-22.69900333,-13.96575667,166.8913333,598.4327
9,7.75,87.93898811,22.6248823,-1.062028021,-0.05060441,397.3370799,18.71766976,1.06632888,0.216334468,22.51521667,59.57361333,96.51610627,10.30446855,28.789583335,27.0825,24.58972667,-5.381173333,-19.20175333,-12.25050333,262.3792667,827.6577333
9,8.25,118.4967375,25.01342415,-1.127363754,-0.06586999,395.95029905,17.89692031,1.295008823,0.247312997,22.6324,58.2015,96.52461109,11.07330674,28.64541667,26.92416667,24.91333333,-3.753499333,-14.10515667,-9.745776667,337.611,1056.9028
9,8.75,163.1908273,27.55551597,-1.317754029,-0.095388671,395.8504584,18.60012779,1.688257102,0.294229758,22.6324,58.2015,96.52910968,14.16148441,28.61,26.90110333,25.46166333,-2.302015333,-6.3565737,-7.288695,400.9264,1248.505
9,9.25,211.0760972,27.83162912,-1.4356981575,-0.127748055,395.0730525,17.241273085,2.3597715745,0.3394929985,22.919648335,55.816816665,96.53171091,15.03280545,28.56666667,26.899146665,26.365695,-1.677263,4.8283162435,-4.1213101665,456.7565333,1418.9503335
9,9.75,246.51193815,28.62162659,-1.590293583,-0.1777122675,394.9920762,17.35779848,2.6455874175,0.3974080495,23.535263335,50.915646665,96.500868455,16.772472715,28.57416667,26.898313335,27.24777833,-0.1869908535,21.81677833,-0.370701703,496.59248335,1566.7663335
9,10.25,278.9376571,29.38851587,-1.712923888,-0.207399394,394.6644591,17.51607063,3.075983316,0.438060563,24.44417333,48.45853,96.488764,16.94928687,28.38333333,26.8933,28.10360667,0.458119187,40.99671,3.147144,538.2099333,1679.686667
9,10.75,299.643922,24.447815985,-1.987332414,-0.2503749755,394.25686035,17.62098308,3.462637287,0.4781121445,24.977168335,48.126378335,96.475042545,18.3657017,28.35833333,26.90596833,29.75875,1.740478815,54.657126665,7.3986981665,545.53903335,1711.75
9,11.25,336.80285375,24.211510915,-2.160708555,-0.279880892,394.0428173,17.93540557,3.601624299,0.5019471765,25.03992,47.76361,96.456428685,18.47682191,28.31125,27.02833333,30.79416667,3.960224,65.8477,11.47040667,566.0787667,1731.291667
9,11.75,364.1019799,27.0796693,-2.3319800695,-0.30710721,392.6923682,17.844989455,3.6481198575,0.5259903055,25.413585,47.673683335,96.447518625,18.519835555,28.31166667,27.289583335,33.676526665,6.199193833,70.043686665,17.49778,560.4098333,1756.6088335
9,12.25,376.4533612,26.474096415,-2.315577663,-0.303311539,392.8234815,18.02659736,3.7276305475,0.531370907,25.55706,46.968308335,96.42346318,18.76609374,28.3125,27.619583335,36.296943335,7.65718,74.13559,26.06366667,545.30563335,1754.349833
9,12.75,380.54777465,26.96662344,-2.1770649375,-0.306236031,392.17180895,18.427519765,3.7379770205,0.528561851,25.83317833,46.544558335,96.405967615,19.743884975,28.39833333,27.99347333,38.86597,9.890606,76.85727,34.81851,529.4034333,1711.75
9,13.25,379.55839995,21.3452548,-2.097690224,-0.325285974,392.53130165,18.22888784,3.759050585,0.548368035,25.976421665,46.152051665,96.38237799,20.51315964,28.59916667,28.5425,40.51750167,14.196376665,78.2477,42.996723335,494.37165,1694.7306665
9,13.75,363.9760581,20.869358715,-2.2832445415,-0.3064915175,392.3037589,18.378731485,3.783780588,0.527339288,25.974718335,47.327968335,96.361820115,19.87308629,28.62083333,29.0175,41.55999667,19.12711667,79.273363335,48.279531665,451.37781665,1578.525667
9,14.25,347.26140145,17.99924174,-2.108188065,-0.281052138,392.03639825,18.407529835,3.601640858,0.5067704485,25.9291,48.491215,96.34048894,18.833058135,28.83166667,29.588333335,42.179996665,22.24500667,76.616098335,52.376908335,393.06373335,1449.4678335
9,14.75,319.33464665,13.545322045,-1.932151738,-0.266086497,392.11618825,18.301240565,3.4923167235,0.49106983,25.413541665,49.22800833,96.330026515,18.31335423,28.90833333,30.10625,41.455831665,23.846725,70.68556167,53.5998,322.1522,1269.5888335
9,15.25,271.8147926,10.5861739,-1.776060612,-0.249757391,391.48785555,18.343324795,3.3190018785,0.478749758,25.255005,51.11372,96.321200875,18.026490905,29.19666667,30.598193335,40.71764,24.022,65.8477,53.718085,254.97723335,1077.0499165
9,15.75,230.63658205,6.796593735,-1.521170699,-0.236481891,391.30834115,18.61642066,3.349240204,0.461462037,24.51641,50.77635,96.3213801,17.80306302,29.495,31.129863335,39.767223335,22.98912,55.11174167,50.842556665,180.7699698,874.15666665
9,16.25,190.12528925,5.1072582555,-1.187829397,-0.210928195,391.2602569,18.348646475,3.250715475,0.4365746575,23.630213335,53.78790167,96.32051294,15.99182806,29.67,31.51,38.51527667,20.948395,43.852411665,44.451701665,97.932535,650.13766665
9,16.75,130.6071214,-1.0323529045,-0.91336043,-0.171282101,391.04159345,17.993024075,3.146671624,0.394979609,23.05694333,56.42581833,96.31669892,14.51411397,29.82125,31.839446665,37.232366665,18.371233335,31.253158335,33.828373335,22.240080585,419.85761665
9,17.25,69.49721065,-3.98862779,-0.3864222025,-0.1506491545,390.644612,17.481368765,2.9170357005,0.365528963,22.6324,58.2015,96.319255545,12.085372265,30.07,32.110416665,35.95056,13.981621665,18.988735,24.314418335,-28.822568165,215.2728
9,17.75,25.709605665,-6.950048169,0.1344439445,-0.1014222415,389.85338395,16.89207599,2.581154907,0.300672665,22.619511665,61.556416665,96.323618115,9.05937069,30.115,32.204583335,34.67986667,7.65718,5.76721429,15.830055,-69.445535,59.239396665
9,18.25,-3.061984003,-7.3813273585,0.6630039905,-0.0551968865,389.5907333,16.04403824,1.952960451,0.221472601,21.444203335,67.43807,96.32923247,7.66360575,30.3925,32.31625,33.335415,4.206586,-5.1072453435,10.468516335,-85.95511167,3.221260447
9,18.75,-8.319776711,-5.029940683,0.828363602,-0.0348021345,389.9104047,15.880616975,1.631401827,0.1754515195,20.58228,69.95844,96.357143155,6.71802198,30.36375,32.312916665,32.228331665,0.521165438,-13.557500665,4.0946926665,-82.152363335,0.0695236035
9,19.25,-7.678491267,-5.932261807,0.934563574,-0.0235403235,390.03094335,15.63408346,1.4032129705,0.142680766,20.03553,73.75285667,96.38635725,5.994780685,30.59083333,32.21458333,31.23889,-1.8600692835,-21.04779,-1.3664259835,-75.42357,0.0648886635
9,19.75,-7.252549513,-3.491407946,0.9881078,-0.0220021605,389.76768865,15.54839156,1.2221704785,0.1381039575,19.6911,75.836966665,96.419588085,5.446179235,30.57875,32.1125,30.71,-3.512905333,-24.180861665,-5.3208073335,-69.63598167,0.05032182
9,20.25,-7.361956885,-4.5060471085,0.741284992,-0.0191765575,389.8971874,15.50284959,1.1146747695,0.129222298,19.57026,76.96503333,96.43083425,4.864107865,30.7075,32.03667,30.71,-4.485630667,-26.53228667,-7.743150667,-68.9435,0.052970353
9,20.75,-8.101918706,-3.304258613,0.723016995,-0.020673663,390.13555,15.304778265,1.073086325,0.1333636595,19.61626667,78.26627333,96.440891965,4.461877,30.700416665,31.702916665,30.00708333,-5.843249333,-28.48242,-9.824099,-64.649771665,0.05495672
9,21.25,-6.3722364965,-1.947174542,0.918008036,-0.015493448,390.1765078,15.270423285,1.044876893,0.1166545115,19.541635,74.744031665,96.43675909,4.6510718,30.692916665,31.4725,29.29,-6.692257,-29.915165,-11.296158335,-62.529163335,0.049659673
9,21.75,-5.7624790275,-3.274559045,0.621493702,-0.018673441,390.3585741,15.257472285,1.029360342,0.126703694,19.483368335,76.322166665,96.436693615,4.383838275,30.59833333,31.272916665,28.629166665,-7.3143536665,-30.485723335,-12.667275,-60.92905333,0.0489975135
9,22.25,-5.1796155465,-3.1107238185,0.620004669,-0.0141016895,390.69234685,15.171676795,0.8918812395,0.1103658575,19.50331,77.85821,96.431921555,4.59103005,30.46958333,31.01500167,28.11958167,-7.7961641665,-31.190051665,-13.507825,-60.287905,0.04767327
9,22.75,-6.7689437165,-2.127714658,0.861866019,-0.013767623,390.41281015,15.144445905,0.9133485595,0.109191318,19.574681665,77.81714,96.432472085,4.075660925,30.410833335,30.711106665,27.717361665,-7.8277716665,-31.89501167,-14.087461665,-58.191058335,0.04502478
9,23.25,-5.658291305,-1.184006546,0.519133861,-0.013290725,390.06670225,14.828947495,0.935813195,0.107155181,19.68141333,78.125561665,96.422746965,4.277169555,30.405,30.457083335,27.496666665,-7.964552833,-32.32105667,-14.570273335,-56.004241665,0.04701119
9,23.75,-5.008011507,-1.894658189,0.6645725415,-0.013382191,390.43070245,14.89699081,0.969736339,0.108101046,19.54585333,78.2979,96.42012644,4.564987605,30.28625,30.211666665,27.0825,-8.0719858335,-32.255143335,-14.78412,-55.78453,0.0503218
10,0.25,-16.81590353,1.083475928,0.901249498,-0.012028457,392.2661991,9.457136608,1.20663711,0.102262148,17.49653,64.82300333,96.50695515,14.01243455,26.2075,25.43278333,21.53222333,-9.035380667,-33.98168333,-16.95308333,-68.82645,0.037079267
10,0.75,-14.35157486,0.991129188,0.914173033,-0.0159932515,392.8929056,8.4858897975,1.2217781555,0.1163601085,17.48499333,59.08607667,96.506659435,13.71581833,26.17166667,25.19,21.21499667,-8.674064667,-33.49729,-16.81204,-66.46239667,0.04237622
10,1.25,-17.17753468,-0.410310241,0.8115014005,-0.015634253,393.4153128,10.90936458,1.186434934,0.116037954,17.00892333,61.77481333,96.52186904,13.3711128,25.92416667,24.96111333,20.99999333,-8.632676,-33.23959667,-16.96711,-66.17504,0.041051987
10,1.75,-15.54005743,1.3214093,0.637071093,-0.013627402,392.720212,8.966486295,1.054692742,0.1070447525,16.97856,59.14126,96.511897275,13.990188435,25.80972,24.73583333,20.68500333,-8.588909333,-32.50063333,-17.09719667,-66.64611667,0.038403473
10,2.25,-14.15845138,1.162649521,0.631286437,-0.0152642915,392.968961,7.948327615,1.038593443,0.1146081615,17.04201,58.71167333,96.497724365,14.06227202,25.59861,24.44528,20.42222333,-9.240748667,-32.78276333,-17.19439333,-67.21124,0.038403493
10,2.75,-15.044504265,2.7750004635,0.725306647,-0.0156370065,392.94307175,8.019505248,1.2098348035,0.1162125695,16.50845333,57.23369,96.486159875,14.256102715,25.58443333,24.22722333,20.20722667,-9.168938333,-32.91209333,-17.35673667,-66.29353,0.037079247
10,3.25,-12.92144944,1.591827786,0.682485444,-0.0121342275,392.9382364,8.0188279895,1.118952154,0.101323465,16.46586667,55.74552333,96.480564255,14.27467417,25.56333667,23.93389333,19.93612,-9.312896333,-32.84855667,-17.42905667,-63.96977,0.041052007
10,3.75,-11.833858425,1.174740344,0.538470057,-0.0133742295,393.28629595,8.023797078,1.01418901,0.1067471825,16.15814667,55.21614667,96.48994747,12.863139895,25.42721667,23.72556,19.76277333,-9.301929,-32.65094333,-17.64084333,-66.37939333,0.039727787
10,4.25,-15.008299715,1.486753958,0.717202342,-0.0143088345,393.6308211,7.9832759895,1.1097829795,0.110543526,16.26305667,56.24856333,96.496543715,13.562194905,25.1275,23.53944333,19.52778333,-8.948303,-33.34203,-17.95212667,-65.25157333,0.035754973
10,4.75,-14.09995018,1.549666982,0.6157391,-0.010950203,393.6447845,8.4557379605,1.1343032805,0.0973652135,16.55396333,56.58769667,96.50800036,12.6882775,25.10277333,23.385,19.40278,-9.03934,-32.89274,-18.15306,-64.17795333,0.039727733
10,5.25,-13.315125635,1.221372509,0.531101904,-0.011040909,393.42681645,7.9768400955,1.010828766,0.0982158875,16.26197,55.22335,96.525614165,14.10161822,25.07166667,23.29278,19.21722333,-9.092941667,-33.03850667,-18.06629333,-64.05994667,0.092698073
10,5.75,-15.976540795,3.847990666,0.710122549,-0.011869158,393.43195245,7.6619601,0.9894454505,0.100601195,16.26661667,57.09535,96.545554855,14.147547095,24.90555,23.05194333,19.03167,-9.106739667,-33.25331,-18.07568333,-58.54939667,8.713622167
10,6.25,-14.0454284,3.813930098,0.350945829,-0.016640721,393.8785047,7.685588255,0.8395227475,0.1186170065,16.13809333,52.98971667,96.56206116,13.268025945,24.69639333,22.915,18.85861,-9.142702,-33.32851333,-18.25130667,-47.97204667,52.49891667
10,6.75,-6.7664399195,5.61541357,0.047429573,-0.013996235,393.9489737,9.169535795,0.8727337755,0.110040796,16.77668,50.18083333,96.578483765,11.69259386,24.685,22.82222667,18.76111333,-8.541979,-31.93057333,-17.93104667,-38.48941667,89.77153333
10,7.25,-3.8687357125,11.505951425,-0.35887717,-0.011895607,394.5775554,13.44912135,0.936344335,0.101435172,17.44646333,51.20483667,96.62564033,11.22324573,24.55083333,22.65,18.77888,-7.627663667,-29.84217,-17.23307,27.32009,213.25875
10,7.75,51.477733315,22.215494075,-1.0683998565,-0.0289637125,398.9706469,11.9696351,0.635756322,0.159724488,19.32610333,44.40478333,96.67330438,22.08771801,24.40222,22.53499333,18.83027,-6.674672333,-26.90160667,-16.35305667,195.9481,641.6020667
10,8.25,86.20757572,27.52090934,-1.401885202,-0.0376904425,400.68161505,12.36611366,0.891197182,0.1830546465,20.77755,39.37668,96.66105946,24.05488709,24.23583667,22.42556,19.06139333,-5.758886667,-22.63472333,-14.54134333,276.3204,867.5590667
10,8.75,124.5237505,31.00800442,-1.461165777,-0.049836381,400.4439406,11.277586595,1.216173175,0.212795038,22.403458335,35.99726,96.64211944,26.093862095,24.193333335,22.307918335,19.637771665,-4.7773405,-16.481863335,-11.66142633,345.12385,1056.2055
10,9.25,166.68203415,31.28219359,-1.715455365,-0.084702888,399.72943935,11.41010383,1.5702755945,0.275409614,23.64003333,32.22846667,96.640437885,27.65834052,24.19,22.25333333,20.38944333,-3.380083333,-1.8006488,-7.914982,402.4197,1218.617667
10,9.75,194.7630054,29.3132311,-1.372539813,-0.101801648,398.4009148,10.47318289,1.83358392,0.299161084,25.026785,30.13881,96.62916004,29.51591769,23.950416665,22.172083335,21.276388335,-2.051074683,16.993049165,-3.5669702665,444.44923335,1357.278333
10,10.25,219.3631331,25.70345845,-1.655685105,-0.1526377,396.8167088,12.46351456,2.2911114485,0.3703125155,26.056665,31.450548335,96.60693046,28.1300054,23.898893335,22.16208333,22.25333167,-0.5939938135,37.73419,2.3453363865,473.34718335,1451.819333
10,10.75,252.7314208,22.4977493,-1.457790194,-0.196980854,395.8671786,12.97935986,2.78924773,0.41625847,26.53108333,33.52286667,96.5799857,28.45227777,23.86388333,22.39972,23.23333,0.8593553,55.31525667,8.892635667,494.3222333,1531.932667
10,11.25,285.0803367,23.26601047,-1.773728454,-0.242365686,395.1543606,12.36207994,3.339023368,0.47066439,26.94718,32.31899667,96.5344458,29.34237351,23.85555333,22.49944667,24.34443667,2.361162333,67.86297667,18.49156,508.2216667,1585.428
10,11.75,292.7099359,21.355503475,-1.943975078,-0.2681987815,394.6082198,12.62088721,3.589467777,0.495942061,27.06848333,35.88923667,96.50265813,27.62473072,23.90389,22.72667,26.44833333,4.032939,76.77783333,29.40925,503.5822667,1592.008
10,12.25,309.21515,20.08703293,-1.759189024,-0.2672101215,394.7756429,13.26763796,3.675427682,0.50136094,26.61637,35.58566667,96.47510572,25.65920088,23.91333333,23.01305667,29.16639,5.481821333,81.11334333,38.27468333,485.492,1564.695667
10,12.75,303.4544692,20.91567953,-1.762777281,-0.2890055645,394.6727697,13.29403651,3.786620034,0.513017093,26.46966667,35.07817667,96.44819637,26.64296836,24.10916667,23.39999667,31.72055667,7.334200333,83.47195,44.90261667,454.1418333,1514.103333
10,13.25,296.1168724,17.69036848,-1.541578263,-0.286095664,394.4918954,14.15085366,3.728868382,0.513292453,26.35675333,35.01084,96.41112187,27.08758873,24.21055667,23.79889333,33.49139,9.093394667,82.56046,51.40585,417.4585,1434.673667
10,13.75,280.9934264,17.19218059,-1.737830854,-0.267777951,394.3215407,13.79731732,3.691765096,0.490859657,26.25313333,36.28581667,96.41453772,25.71564584,24.37972,24.59639,34.75333333,13.30806667,80.26116333,54.15272333,367.4236333,1326.808667
10,14.25,255.2624046,15.36441592,-1.4881562575,-0.2426551425,394.3365766,13.96258425,3.537728747,0.466410783,26.03088333,35.92226333,96.42331101,27.44538713,24.65833333,25.19611333,35.36444,17.881396665,75.41588,55.04603333,307.8793333,1168.12
10,14.75,231.5630243,11.282198995,-1.37568683,-0.2255059465,395.14762875,13.79663381,3.2987139,0.452849521,25.55114333,36.1349,96.42288786,26.9815089,24.88389,25.79111333,35.33111,20.64374167,68.13429333,53.32656,229.4013667,998.0621
10,15.25,187.3051245,6.936081526,-1.006667763,-0.189817221,394.9485556,14.01593352,3.251125881,0.413768729,25.42318,38.78463333,96.42334182,25.48662021,25.08888667,26.49499667,34.73861,22.21599333,57.61001333,46.49506,157.497,796.8555
10,15.75,149.5132559,5.153366806,-0.790428017,-0.157014618,394.7038041,13.75896735,3.088923199,0.3772547,24.99231667,40.97619333,96.40095836,22.43911958,25.33722667,27.05555,33.72944667,21.11712667,45.44025333,37.75128667,81.47618667,577.5105
10,16.25,92.00936627,4.003942349,-0.419818861,-0.129646754,394.8721528,13.73448441,2.750508841,0.342594274,24.38290333,43.27896333,96.39489431,20.8772733,25.57,27.45,32.55194333,18.33459667,32.92635667,28.71276,4.934408033,373.9204333
10,16.75,31.50196161,-4.3836547045,-0.163473558,-0.102406733,394.3733895,15.030240935,2.363970981,0.300624616,23.07689667,49.24175333,96.40105388,14.39113371,25.75889,27.80889,31.47861333,14.82310333,19.55270333,19.20902,-53.17844667,160.62594
10,17.25,0.643960651,-4.3770725945,0.351496345,-0.063107643,393.1059724,12.96174767,1.927810185,0.236862027,21.57764333,53.17481667,96.39706223,19.06748143,26.04083333,27.92166333,30.28305667,8.805247333,6.293148,11.08110433,-85.88963,25.261561
10,17.75,-13.39450653,-5.265014281,0.7327901815,-0.031944369,392.3072267,12.171534935,1.605307526,0.167596753,19.64590667,54.60583333,96.43405233,15.987837355,26.21111333,28.00166333,29.27916667,4.329567667,-5.737555367,4.634169333,-88.87732333,0.480705827
10,18.25,-13.95424287,-6.064978338,0.709348436,-0.018115442,392.0263977,11.65562202,1.459978247,0.125218336,19.15038667,55.13354333,96.45812045,15.02320694,26.36721667,27.97166333,28.055,0.02250452,-14.49401667,-0.987344153,-86.26093333,0.060915867
10,18.75,-13.06223024,-4.42899563,0.8181709565,-0.019675023,392.1709762,11.67906483,1.250002707,0.130591949,18.41102333,58.37507667,96.4581319,14.26016707,26.55833333,27.83333333,27.09583,-2.334019667,-19.75313,-5.062903667,-80.64676,0.050321813
10,19.25,-15.82313372,-3.0228793695,0.71846283,-0.016247512,392.3150347,11.97667566,1.258933887,0.117845773,18.26563333,61.43527333,96.46911577,13.71073071,26.6875,27.81167,26.265,-4.344496333,-24.05416667,-7.547073333,-78.27694333,0.047673287
10,19.75,-19.62606545,-3.0730833415,1.092610397,-0.015615892,391.788773,11.76996256,1.297527343,0.116107245,17.88568,68.7095,96.47198758,13.77609878,26.68916667,27.62333333,25.42916667,-5.902507667,-27.33369667,-9.873431333,-76.25876,0.051646067
10,20.25,-14.53241261,-0.119291662,0.988692074,-0.013081785,391.9169213,11.95070447,1.325873395,0.10698549,17.49382667,62.59281333,96.49254436,12.58927859,26.67833333,27.32833333,24.79666667,-6.701021333,-29.60328,-11.62211,-75.61978,0.046349027
10,20.75,-16.02051316,-1.682776882,1.03267287,-0.013275239,391.8241875,11.82843146,1.206137794,0.106081142,17.89418,63.42333333,96.50663956,13.34965848,26.67416667,27.08916667,24.24583333,-7.712479333,-30.86562,-13.16995,-74.48764333,0.045024787
10,21.25,-14.67108702,-3.822784723,0.91419222,-0.01374118,391.8393341,11.31057455,1.325584295,0.109044403,18.00314667,59.62713667,96.52166455,12.69046467,26.68166667,26.80555667,23.72638,-8.343396333,-31.96352333,-14.25903,-72.55867667,0.039727767
10,21.75,-16.67938038,-1.788090246,1.0020622175,-0.012436718,391.2451403,9.176847101,1.285976056,0.104423175,18.23798,61.94335333,96.52630125,13.44470963,26.66416667,26.58583333,23.33443667,-8.416450667,-32.4828,-15.13546333,-71.77962,0.041052033
10,22.25,-17.94481394,-2.158730743,0.8233570215,-0.011930899,391.3284012,8.667694672,1.33375599,0.101930034,18.29263667,62.4140871,96.52321345,13.44455051,26.45,26.30444,22.80222333,-8.633917667,-33.04445667,-15.89648333,-70.09963333,0.043572374
10,22.75,-13.82594857,-1.369053621,1.093029074,-0.013905651,391.8606435,8.395993996,1.070653506,0.108663202,18.18899667,60.96257,96.51173577,14.37590276,26.41,26.06694667,22.48083333,-8.847314667,-33.81008333,-16.26765667,-70.55824,0.04370048
10,23.25,-21.13233664,-1.098615646,1.1531322585,-0.012909577,392.3751513,11.29549019,1.177378357,0.106072352,17.73402,62.12718333,96.50300816,13.53082462,26.34722333,25.75583333,22.04972,-9.077676333,-33.86865333,-16.44212333,-69.83962333,0.043700527
10,23.75,-16.53530663,-0.837084524,1.06988915,-0.011023411,391.5823478,11.4243429,1.314352312,0.097581278,17.18137333,66.76216,96.50579617,12.98230654,26.20972333,25.57305333,21.79944,-9.164527667,-34.24673667,-16.72507333,-68.96126,0.04502476
