DOY2,HR2,H,LE,FC,TAU,CO2,H2O,WS,USTAR,TA,RH,PA,VPD,TS_1_1_1,TS_1_2_1,TS_1_3_1,G_1_1_1,G_1_2_1,G_1_3_1,NETRAD,PPFD_IN
1,0.25,-2.504335832,10.29597785,1.687841059,-0.014277983,410.12859275,10.5059376025,1.6784649505,0.17679400225,11.69157165,87.946075,97.192813465,5.0426761925,13.7020742,13.205478325,11.6551392,-5.577013,-17.325300835,-11.92094167,-40.3306949975,0.0476733
1,0.75,-11.50548864,14.25919641,2.815678693,-0.012515328,409.387433625,10.37920075,1.678730483,0.22401529675,11.9425341425,88.1981200025,97.1932899575,5.072351155,13.6312458,13.0436125,11.4404183,-5.90508083325,-18.157315,-12.008331665,-43.54182667,0.045024778
1,1.25,-9.3018709745,10.9375570075,3.091693906,-0.01163350675,408.390825825,10.4185569225,1.87259923725,0.20001354,11.8456825,87.964635,97.1934533375,5.275048205,13.50736165,12.896946675,11.2114683275,-6.14680608325,-18.9570208325,-12.2285799975,-41.780054165,0.04802438
1,1.75,-9.3555925455,10.943694295,2.3356757785,-0.0097108835,409.881264425,10.1043821425,1.94856880225,0.24695199225,11.775116675,86.48599833,97.182822935,6.6832655775,13.45395665,12.748756675,11.090765,-6.48018925,-19.001378335,-12.6788966675,-41.77501667,0.04402539525
1,2.25,-6.53513660825,16.00190211,1.8692688375,-0.009603703,408.311661725,10.0155340925,1.84935074175,0.18554263875,11.870797525,87.661015835,97.1922494175,6.1567319325,13.439511675,12.6734050025,10.907982525,-6.28539508325,-19.093213335,-13.2412183325,-43.7779649975,0.04370013
1,2.75,-4.50293176025,15.3073574825,2.43249124425,-0.0121351585,409.56707265,9.9331984295,1.73366244675,0.19283716225,11.075874225,87.5170766675,97.1837389425,5.8027527425,13.4227075,12.5672216775,10.739586675,-6.672834667,-18.89872583,-13.0416849975,-46.56274667,0.0437004985
1,3.25,-3.6963946375,10.2383969355,1.585985502,-0.009673486,408.88240755,10.07891583,1.76118682575,0.166281889,11.384675025,87.96222667,97.1843248475,5.60060221,13.3299933,12.42688667,10.550276675,-6.5934465,-20.7915141675,-13.43534583,-42.7324175,0.04305619825
1,3.75,-5.0610826345,16.64575577,1.9966855975,-0.011846302,408.2896265,10.187602915,1.720649302,0.19357973525,11.248139975,87.4775399975,97.1636096675,5.40614763,13.2977016775,12.3434666775,10.3195142,-6.60235191675,-20.7782558325,-14.1944275025,-28.400158335,0.0423762885
1,4.25,-7.946012244,16.61819898,1.710214942,-0.009841198,408.67226025,10.06616139,1.70627787625,0.20757216075,11.05671915,87.578105,97.154316075,5.9262714825,13.2270175,12.17625417,10.3036066725,-6.764718417,-17.6130775025,-13.6830175,-29.75190583,0.04535588325
1,4.75,-6.24864628025,19.13817434,2.033726821,-0.01299934475,410.021974775,10.17850369,1.70080012225,0.218801915,11.3312233575,87.4584299975,97.14770237,6.547464985,13.1656967,12.07569833,10.2477833325,-6.81283725025,-19.38141667,-13.435849165,-29.942955415,0.0397277215
1,5.25,-4.184942411,14.55968804,1.56038019775,-0.0108382355,411.85977565,10.101352785,1.96299925675,0.21277765425,10.96055915,88.0508849975,97.163474185,5.89239872,13.01708585,11.9843050025,10.2093091925,-6.866695417,-17.096860835,-13.6471824975,-35.497879165,0.0463
1,5.75,-4.65879190675,17.358992495,1.968984262,-0.01193365875,410.07680185,10.3376416475,1.8881570045,0.2102150175,11.104133575,87.3009550025,97.183860905,5.4855699525,12.943475825,11.9119433275,10.07743325,-6.866864583,-17.5339466675,-13.923565,-41.2347274975,0.04502478
1,6.25,-7.46585827775,29.84587104,1.9166896915,-0.00971782825,407.98298795,10.0537685375,1.844375926,0.1860722675,11.209894175,87.9539558325,97.205172795,6.2572579425,12.898405825,11.70736335,9.9017354175,-6.96324449975,-17.9398674975,-13.6912783325,-39.233335835,0.1228250035
1,6.75,-8.76310641325,10.70027996,1.62164385675,-0.012798109,409.586846325,10.030014441,1.78806187325,0.19112946375,11.2472616775,87.0355466675,97.2217506225,6.3115639125,12.811243325,11.627017475,9.8140965,-6.942012583,-18.7045908325,-14.14709917,-36.2603933325,11.6091157425
1,7.25,-4.871771916,22.83398068,2.50835361875,-0.01026180525,408.717819225,10.3776380175,2.07394577125,0.207858266,11.8276442,87.539090835,97.2466199,6.7333652325,12.7465233325,11.5481233275,9.70416733325,-6.5935033335,-18.695383335,-13.6701083325,-19.1017465825,60.6262283325
1,7.75,0.20718075925,23.685366655,0.69834752825,-0.01118465175,411.19019105,10.5098567725,2.12787564,0.257057953,12.114138325,86.978195835,97.252344285,7.0758352025,12.7019533325,11.490969175,9.82506742525,-5.864397167,-15.3750875025,-12.7687825025,3.39510102475,114.798012525
1,8.25,4.1720269325,26.1432598425,0.38677445525,-0.014366471,408.03583415,11.25509105,1.654959816,0.212847122,12.07730335,88.647726665,97.293714445,7.096073505,12.6665267,11.391245015,10.236530515,-4.1767301665,-10.1565216665,-9.401797,26.203534285,208.9660333
1,8.75,16.759279505,60.47893891,-1.51384019,-0.01545571875,408.8821507,11.820703125,1.64646437825,0.25411849,13.1964908325,84.1648849975,97.3502416075,8.6419202575,12.628125825,11.3632,10.8155541725,-2.19133198775,-4.9711575835,-6.9636915,130.8769392,527.9952667
1,9.25,60.61315228,76.16695954,-1.41999310575,-0.019234689,410.672301025,12.8557141725,1.88077657375,0.25587953,14.5268408575,82.2482258325,97.363486995,10.8372606,12.44645,11.33938,11.0888874975,-0.61197108325,1.629078997,-2.68973671675,264.55821665,848.2423917
1,9.75,84.24390077,85.76562669,-2.804846311,-0.021353107,409.504759575,12.38979063,1.944365047,0.2891864765,15.9693999975,78.277615835,97.3759938325,12.9424291725,12.4241649975,11.3944458,11.39826835,0.863934483,7.91948409975,2.307464646,331.6806,1019.0684
1,10.25,108.06735725,113.84464655,-2.258972376,-0.02543303075,408.44488395,12.4865314725,2.3925011785,0.33105765825,16.6272658075,73.264055,97.36643219,13.65017701,12.3916641425,11.5102808575,11.9340275025,2.98605675025,27.23571417,9.0477770835,378.44208335,1143.4275
1,10.75,117.3632977,117.7141818,-2.6845885695,-0.030877193,406.68934855,12.674764795,2.5647202975,0.33876376625,17.5458625025,68.1488224975,97.326479965,15.523533915,12.3861741675,11.6145725,12.6056949975,4.687944417,42.4622599975,17.654400835,414.9900917,1231.862533
1,11.25,131.1254622,122.34110865,-2.5648085065,-0.03843981925,406.166890875,12.601228155,2.6797901845,0.35881216925,18.406923325,67.37947,97.2823829275,15.77978073,12.4088833575,11.7122249975,13.0269450025,6.12840033325,57.5585,28.8894966675,442.2379333,1309.673333
1,11.75,141.8306855,127.784901875,-2.408037467,-0.043723066,405.889887075,12.56454361,3.039224907,0.36008120975,18.951744975,65.515471665,97.22012869,15.62733869,12.44944333,11.78216083,13.7954217,7.541971083,67.4819641675,39.8786774975,449.931400025,1350.038
1,12.25,150.2372711,136.1229459,-2.248150382,-0.048494607,405.021257175,12.789562325,2.911068905,0.3968152285,19.01463165,66.525455,97.1756431525,15.79697925,12.464445835,12.00611083,14.82007,8.270681583,73.235805,47.67248667,434.646533325,1331.6974085
1,12.75,149.2057692,114.641864,-2.076310291,-0.0639366605,405.5862175,12.838365155,3.09792326925,0.375536867,18.6330392,66.154305,97.1382630475,16.9814484525,12.599302475,12.293821665,16.221385025,10.4005747475,78.29999667,53.152738335,420.757674975,1309.32275025
1,13.25,142.668318875,139.0515003,-2.1948562165,-0.06483007275,404.97879145,12.76164241,3.5554983835,0.407228296,18.62097585,66.485080835,97.0956518475,15.0952600425,12.674100835,12.6949333575,17.69285417,12.25536417,79.018795,56.78954333,376.21163335,1229.28785
1,13.75,134.237537525,102.1598676,-1.8873019495,-0.073158617,404.573973175,12.956635145,3.436966776,0.4140273645,18.5569941775,66.980345,97.067662335,15.63736053,12.7543075025,13.0956891675,18.7025025,14.0697691675,77.358611665,54.756971665,332.9483,1139.2791665
1,14.25,127.9679128,108.0368593,-2.1366718465,-0.0578623435,404.6153224,12.96887497,3.157239979,0.3893026715,18.3821283575,65.9474841675,97.0749031025,15.3890173375,12.925765835,13.3823591675,19.065695,18.01229667,72.0129,48.698875,286.5797,1024.9878665
1,14.75,110.289486,74.85157062,-1.63296885675,-0.077282483,406.61345235,12.9415804275,2.979792923,0.399058157,18.2016766775,67.236195,97.0910296625,14.2636618425,13.0834067,13.8656258575,19.63555665,17.8348074975,66.51164667,41.7307591675,219.6791167,854.58348335
1,15.25,85.11011397,70.8139507,-1.1205706565,-0.074049337,404.638576075,13.1060439625,3.188689106,0.373922864,18.0136933325,69.5365416675,97.0918158,13.6008717925,13.2766675,14.340073325,19.374033315,18.72057,55.524813335,31.773298335,147.864940825,661.10351665
1,15.75,49.91740222,57.208308235,-0.4252420485,-0.057371438,404.59809155,12.7395283625,2.86427057325,0.341212968,17.649700825,74.7643175025,97.0853324525,12.8006704625,13.453685,14.745214175,18.653744985,18.4942825,43.75514083,23.2335358325,78.12629917,465.11716665
1,16.25,30.187722635,48.23330428,0.025067788,-0.0389261875,405.2075581,12.623511365,2.603477743,0.3212520795,17.0915025,75.5554475,97.09940632,11.7523752775,13.5190208575,14.9685408275,17.93735835,14.306435335,30.118550835,16.5599608325,14.53684856,285.293725
1,16.75,3.673473848,29.52573036,0.73376087575,-0.0255019385,405.890186925,12.4646546625,2.110858771,0.252436678,15.991950825,80.5157916675,97.1124264525,10.45444566,13.745551665,15.0997275,17.296039975,9.632996,15.144671085,10.7175969975,-31.01393308,104.17311665
1,17.25,-6.67174137,26.1929070725,1.695132178,-0.0140264635,403.438026425,11.9364946775,1.8637140045,0.2134043005,15.163588325,84.368308335,97.1227236075,8.7938740625,13.8615991775,15.1504158275,16.4852783225,5.68405133325,3.09025270175,4.60773483325,-37.37153667,12.004737775
1,17.75,-5.41976921725,12.62831673,2.126253631,-0.01311580325,406.24983685,11.784804905,1.99308071425,0.22801515775,14.751623325,85.7882783325,97.1355521475,7.6128340625,14.0356249975,15.089584175,15.626460025,2.0442609085,-6.338015,-0.823418879,-35.5277325,0.13408120975
1,18.25,-8.605314573,13.4070691375,2.4769302125,-0.008391703,406.7976365,11.5955120175,1.836446708,0.19247403375,14.000425825,85.4280499975,97.1464883075,6.7029883525,14.103480825,15.029585,15.045205,-0.2832854475,-11.11003908,-4.694783,-32.3593024975,0.04932319025
1,18.75,-10.7045591825,13.902664415,2.634800747,-0.00905839475,406.42419195,11.657011895,1.920247048,0.1858322805,13.773799975,85.6880325,97.167725245,6.61048085,14.1327158225,14.933338325,14.6118025,-1.935470833,-14.5588791675,-6.6882349165,-34.754306665,0.053301408
1,19.25,-8.31277929425,10.5904529525,2.837050876,-0.00662351975,407.02102325,11.5275187975,2.114788211,0.20877094925,13.4287475,89.1405775,97.1948572325,6.761859175,14.1413291725,14.763895,13.9849333275,-2.9877528335,-15.56171333,-8.43089725025,-37.6791583325,0.04800438825
1,19.75,-7.28053582375,4.349476294,1.95781025125,-0.0081238155,409.065908225,11.539463325,1.8667708055,0.186528485,13.2934225,88.8923658325,97.20148578,6.165029755,14.142434175,14.5914641675,13.51965585,-3.91380124975,-16.5111941675,-9.8364593335,-32.728801665,0.04766180475
1,20.25,-11.89325077475,13.0083122575,2.439292799,-0.00792715275,409.0938829,11.5130664125,2.0150466515,0.202602909,13.1012966425,88.91196167,97.19324799,6.787592235,14.1328483225,14.4172875,13.11200835,-4.48596974975,-14.82044667,-10.4043160825,-27.157458335,0.04270721
1,20.75,-7.37660362,4.92181373675,2.024896451,-0.0126477535,409.34340285,11.7061711125,1.85335061575,0.2097878295,12.847107475,89.14135,97.18367882,6.4893794925,14.1151483225,14.232014975,12.8501383575,-4.6467804165,-13.4010999975,-9.8413874975,-30.21338917,0.04767996
1,21.25,-9.3853216925,9.206959869,2.203337717,-0.01031572825,407.134726925,11.3441561225,1.87296032325,0.23214422075,12.66448,88.2862725,97.1989027525,6.4551513125,14.0795108575,14.087707525,12.635004175,-4.69325966675,-15.288835835,-9.9037455835,-31.4568325025,0.04631226325
1,21.75,-7.155655059,11.92890899,1.93245067525,-0.009473396,409.01776935,11.067012975,1.65670689775,0.22505546925,12.4039983575,87.8471474975,97.20282327,6.2899452925,14.050765825,13.87535,12.39631167,-4.76399608325,-16.5430774975,-10.9362602525,-36.40418333,0.0480043535
1,22.25,-4.13986593175,6.29665088625,2.68316323025,-0.00953380275,408.73880625,11.103869855,1.80922455875,0.19537000675,12.304899175,89.50016667,97.21885576,5.680308535,14.011042525,13.683259175,12.3642341675,-4.8961961665,-15.782249165,-10.65101967,-39.115923335,0.048025
1,22.75,-6.502461926,8.649332304,2.0794717575,-0.01461953875,408.2804612,10.8572454625,1.684368327,0.1888918095,12.647656675,89.75581417,97.2093878325,5.949701525,13.87958665,13.503542525,12.079790025,-5.08338383325,-16.522881665,-11.1574183325,-39.76390417,0.046680102
1,23.25,-7.41574374225,5.287487347,2.7134144825,-0.0109934445,407.40292785,10.67735215,1.833900869,0.19932019525,12.1098716925,87.92082917,97.2033780925,6.0733420825,13.814383325,13.45271665,11.9332666775,-5.2325751665,-16.734600835,-10.9937358325,-40.811378335,0.04664332825
1,23.75,-6.8339368455,13.75004445,2.850362355,-0.01067824975,408.751573,10.6171769675,1.61226332525,0.171438879,12.1076108575,88.1335658325,97.1949123425,6.0341921075,13.740138325,13.3324308575,11.8597166925,-5.2734284165,-17.02447167,-11.9642049975,-34.1771941675,0.0466801435
2,0.25,-8.2135206735,13.6126339225,1.7649313925,-0.010492109,405.556705325,10.102099785,1.987791138,0.1808607895,15.3991324975,82.2929149975,97.1214689725,13.5593316125,16.4127816425,16.272357525,13.978333325,-7.62475125025,-26.3441999975,-15.7321141675,-59.4275341675,0.0493286615
2,0.75,-6.99333412875,6.6709782935,2.45949493225,-0.011889878,405.30399235,10.1347158225,1.82548512,0.1624245955,14.78720585,81.8664458325,97.1004241225,13.16457836,16.3216633075,16.0815942,13.721525025,-7.771652583,-26.6009525,-16.2439075,-56.8952049975,0.0516
2,1.25,-8.663677984,21.28525791,3.61325960275,-0.0120133655,404.6840301,9.789541116,1.76893984425,0.17370202425,14.698920825,82.7974866675,97.0842971675,13.192153525,16.2490308575,15.8586808,13.5120858325,-7.9217494165,-27.2423974975,-16.1394341675,-54.5365374975,0.04631225675
2,1.75,-7.27966673025,16.93505083,2.7862882325,-0.0131565285,404.45681345,9.86953206,1.775555833,0.15859583125,14.5635808225,80.0969199975,97.071824025,13.057812765,16.1444458075,15.697429975,13.2761808575,-7.947363417,-27.3509350025,-16.3254300025,-55.49417667,0.053
2,2.25,-4.5642013865,13.5780223575,1.611727973,-0.0104980415,406.625202975,9.6219286665,1.90592823525,0.1727617355,15.072380825,81.36169917,97.063599065,13.3383124125,15.9945833575,15.5033292,13.0275683325,-7.8860693335,-27.9123225,-16.5991500025,-55.6013999975,0.04899753175
2,2.75,-7.4428691805,21.211083695,3.3292338085,-0.01223942375,406.183202775,10.02186647925,1.70630059925,0.1884005215,14.705827525,82.96763167,97.055345455,13.26979711,15.9249966925,15.354170825,12.94187167,-8.16966524975,-27.33758083,-16.5091416675,-57.21026583,0.05064138525
2,3.25,-4.820081548,15.73100033,2.159010887,-0.011324651,406.3061443,9.84653794825,1.69011591425,0.191523423,14.562628325,81.0042608325,97.0330703375,13.70419496,15.8624333325,15.1355558,12.87270417,-8.195278667,-27.9518925,-16.173090835,-50.535909165,0.051646072
2,3.75,-2.3235827795,19.9856051,2.312296826,-0.0104434215,405.885811575,10.23051691,1.84706797275,0.1605430905,14.68315585,85.1026700025,97.02864897,12.949503775,15.760972475,14.967639175,12.748889975,-7.8895748335,-24.9693725,-15.7115316675,-50.46155667,0.048997558
2,4.25,-4.16602767225,14.859399845,2.7048364745,-0.0118928325,405.455134875,9.9308645405,1.984094284,0.180090023,14.597192475,85.25425,97.02594517,13.21668197,15.6943825,14.793125,12.638537475,-7.73656658325,-24.0171191675,-15.482558335,-52.1065066675,0.051611525
2,4.75,-6.6612716765,14.1490364325,2.26825572275,-0.0105322465,405.34356255,9.89112529525,1.7797699195,0.19081868725,14.76890085,84.282691665,97.0206697925,13.7835011,15.5893783575,14.65250085,12.418826675,-8.070571833,-23.6168591675,-15.48466667,-51.0812350025,0.04402538025
2,5.25,-7.07890998325,12.711425105,2.051098495,-0.01124493925,404.71389815,9.41062272,1.5536357315,0.18347641325,14.82291085,84.6434924975,97.0176334775,13.18291243,15.500560825,14.4888892,12.30507,-8.120868,-23.3965466675,-15.41277833,-48.838659165,0.05032179
2,5.75,-5.14409551925,18.6891407575,2.0829415405,-0.0134178175,406.3746842,9.520561846,1.63742905475,0.20398222625,14.8549874975,83.401885835,97.023166285,13.3752307575,15.378957475,14.341809175,12.087986675,-8.083379417,-24.04226917,-15.802105835,-51.121525,0.060915872
2,6.25,-7.01452056225,22.64772096,1.8265399545,-0.01219940025,405.10690395,9.478803546,1.72217867375,0.1779744975,14.649170825,84.278663335,97.0366449325,12.9120058075,15.343477525,14.1911825025,11.9296583225,-7.9818268335,-24.5335283325,-16.0489924975,-52.26986083,6.15184583825
2,6.75,-8.199075158,17.883405425,1.424909495,-0.01224278575,404.1312253,9.3898657005,1.83371399975,0.20557428925,14.54423335,83.1063875,97.052730425,11.5342049525,15.262989975,14.0797241675,11.759096675,-8.102123583,-23.4868175025,-15.92573917,-37.452380585,50.1374400025
2,7.25,-5.8810321615,30.1205230925,0.918960536,-0.017229241,404.70764355,9.936432967,1.687349323,0.17917918125,15.10524415,81.489169165,97.07924171,10.4920891,15.1842333075,13.9469425,11.7197266425,-7.760767417,-21.7438925,-15.182936665,-8.54549802475,98.2894050025
2,7.75,2.73252519,28.20753051,-0.024793219,-0.01104377475,403.16577115,10.5741185825,1.4438780195,0.19639602075,14.7768467,80.983755,97.1070982325,9.3758465375,15.0445841425,13.792849975,11.8169424975,-6.2674145,-19.0136375,-13.2667025025,16.3312393575,180.48722835
2,8.25,23.37717546,57.02477025,-0.72924146375,-0.01192776175,404.426504775,11.46749694,1.43079597425,0.21219759025,15.9843217,78.195269165,97.15167601,13.12305491,14.98417,13.6736774975,12.012639175,-4.048178083,-14.2536899975,-10.688816415,147.46151635,600.296525
2,8.75,47.319527675,79.64224883,-2.560376789,-0.0156447475,408.041241775,13.17371128,1.572645782,0.2645047345,18.22335165,74.630956665,97.19163977,17.48191547,14.95903,13.56416665,12.400276685,-2.6865715,-9.1471755,-8.091346667,273.6390333,880.75271665
2,9.25,88.3279616375,103.9672108,-4.46541711475,-0.02446144,405.4496668,13.3826751025,1.9349414445,0.282857684,19.6969475,69.6642550025,97.1816222425,19.69659815,14.9056192,13.4922866425,12.8895175,-1.42651871575,-3.34122536025,-4.91117941675,351.41879165,1065.172792
2,9.75,111.3012896,131.257259875,-4.9032177305,-0.0212120925,403.983010175,13.252135615,2.12635395375,0.325627932,21.3511083,64.7709475025,97.16665969,22.5200818,14.829575,13.492428335,13.3536083575,-0.13601650275,14.796561,0.0547121245,414.012691675,1250.553417
2,10.25,125.977503875,151.95492565,-4.75102603975,-0.02327394325,402.7459861,13.0642863475,2.6644488705,0.354218777,23.01550415,62.046965,97.1572042875,24.27705046,14.72833333,13.534443335,13.99124333,1.1196268085,41.2536774975,7.14846533325,465.6858333,1384.9945415
2,10.75,135.2984474,162.823611775,-4.87196232575,-0.0419273645,401.512763875,12.65593446,2.91306313875,0.34606636025,23.9119492,60.077041665,97.143106515,23.71673265,14.7007683325,13.635136675,14.9734666925,2.70890724975,65.1521374975,18.9398950025,495.1862583,1478.37258325
2,11.25,152.1607637,164.0490644,-4.393272014,-0.0548966935,400.8838249,12.07637131,2.97583332225,0.3781154445,24.3793041425,58.765915,97.1214052275,27.7237219475,14.6886858575,13.8102058225,15.77035,4.89613925025,82.0506575025,32.9413591675,521.75381665,1553.434083
2,11.75,169.7729708,154.0879154,-4.813509274,-0.06113838,400.373621,12.221949795,3.167117279,0.40836817,25.1756017,57.30197,97.057003175,28.15503366,14.6905541425,14.010555,16.6029916725,7.23001899975,95.9331083325,45.9443133325,525.294258325,1597.16474975
2,12.25,167.76641145,161.73527205,-4.35952002175,-0.0971618535,400.42946415,12.324831585,3.5859425355,0.41740597425,24.63050585,58.3946808325,97.018918105,26.8670479375,14.7837525,14.2782675,18.6808991425,9.7320334175,104.5868667,58.5307224975,514.856675025,1608.91649975
2,12.75,191.185824,172.06503685,-4.4339102275,-0.104331832,400.49251585,12.61591742,3.4728900435,0.4597670915,24.27226335,57.478615,96.9847513475,27.365987945,14.902149975,14.6081216725,20.95874833,13.3723574975,109.941849975,66.208206665,500.305575025,1578.65641675
2,13.25,178.562224575,163.9777458,-4.348781187,-0.112674585,401.50424595,12.8954154,3.500723267,0.436637122,24.05547165,58.72295,96.9455947025,27.65045675,14.9811108075,15.04902415,22.7809674975,16.66657667,110.757050025,70.00208333,467.76744165,1512.81849975
2,13.75,180.2514771,167.8719381,-4.498763688,-0.122835285,401.54101205,12.8912662375,3.6570029385,0.4334212475,24.23812165,60.6621116675,96.92532096,27.31433717,15.1147258325,15.7434017,24.2065950025,22.48794,108.80235,73.827248335,420.738325025,1398.1993335
2,14.25,163.92586025,152.5571978,-4.060480193,-0.1162187215,401.33683795,12.858358805,3.46013583375,0.4572429465,24.51585335,63.60535583,96.9166339775,27.6911965225,15.363890025,16.463403325,25.152985825,32.749003335,103.904335,74.958491665,363.661575025,1275.09750025
2,14.75,146.57696015,141.05650145,-3.707678436,-0.10173935525,401.62790195,12.45909557,3.354086165,0.43676109425,24.2820858,63.8988000025,96.9174024375,27.329331155,15.6506975,17.1477133325,25.36291665,26.3288358325,95.4094250025,73.5807624975,298.4444333,1114.23283325
2,15.25,122.47679055,115.7213107,-3.11810218875,-0.07650947275,402.96876045,12.6834053575,3.33716814275,0.41190430025,24.0965867,63.9967750025,96.91575661,26.70317063,15.892010825,17.824793325,25.399435,27.5061041675,85.580394165,68.6864550025,224.0987167,918.23820835
2,15.75,95.086090495,98.89976383,-2.482460208,-0.075657817,403.92426075,12.62255015,3.1921167735,0.41096763475,23.901724975,64.4578191675,96.9204362975,26.13707542,16.115695,18.380978325,24.71319665,27.798576665,71.153169165,52.40523667,145.725000025,716.41548335
2,16.25,64.60924794,75.0954234625,-1.6893337355,-0.062389129,403.322534875,12.4332040725,3.0985406695,0.358101606,23.1255091725,65.368154165,96.93762632,24.759355385,16.3538233275,18.792085025,23.729793325,25.952078335,56.1519591675,37.5170083325,63.0028874975,488.34693335
2,16.75,34.545992,69.27048664,-0.79771502325,-0.0455908495,403.52685145,12.465111355,2.92403643025,0.35473064725,22.406230025,70.8728983325,96.957989835,22.3197606,16.5015308225,18.966876675,22.618190825,21.7218925025,38.0840024975,26.008876665,0.12784369975,279.924216675
2,17.25,6.641070365,44.25656596,0.733453617,-0.02089785325,402.82881975,12.3694400025,2.21472943275,0.25760954,20.709525025,72.6499233325,96.9698445525,15.471041095,16.7272208225,19.110004175,21.6431967,16.3422675025,19.2518041675,17.39826917,-50.636773415,92.87394333
2,17.75,-8.5578077855,29.92730906,2.506292975,-0.013517308,403.35630585,11.4120490175,1.99699496125,0.183098337,19.150586,79.031688335,96.97956987,18.0397191625,16.8728441725,19.121659975,20.697363325,10.57775975,3.131257575,9.404956667,-68.461983335,8.7689067
2,18.25,-8.2858348015,12.8599000925,2.533871148,-0.0119698885,403.4610298,11.02790452,2.076180325,0.193237598,18.3473625,81.93306917,97.000264335,17.80890143,17.0087466775,18.99007165,19.780283325,4.97518741675,-9.25355224975,2.31328901,-69.162016665,0.083738135
2,18.75,-11.598266585,8.10724235525,2.4736164835,-0.00985088475,403.63875695,11.16834811,2.11214342375,0.172757654,17.7043116775,82.904133335,97.0312235225,16.3277052375,17.0766633225,18.896184175,19.09152585,1.37020161875,-16.7477274975,-2.845069517,-66.7207216675,0.055618852
2,19.25,-10.3335023895,19.3991057225,2.43512700775,-0.010046116,404.95620375,11.52859907,2.1565810835,0.18337048175,17.029204975,85.882285,97.0599922625,16.100034515,17.1068750025,18.723889175,18.357359975,-1.11281326225,-20.3506749975,-6.512082417,-66.3095991675,0.053
2,19.75,-12.866949545,13.9579211725,2.9707693995,-0.010536526,404.66322695,11.357116785,2.090667523,0.19123859825,16.37430085,85.479278335,97.065407295,15.537308495,17.1177816775,18.4982616675,17.62750165,-2.85855000025,-22.83136833,-9.25655858325,-62.095981665,0.05429595
2,20.25,-11.66630331,14.890612995,2.929661735,-0.01093903,404.45629275,11.112448685,2.13940517475,0.1955081785,16.817743325,84.408996665,97.0804371225,15.7201959925,17.1066683225,18.2279166675,17.02208585,-4.14783633325,-25.0479516675,-11.042993335,-60.6415874975,0.053301422
2,20.75,-9.82824032,19.12207455,3.686219782,-0.0099663615,404.9670862,11.18277057,2.0915440375,0.178575306,16.7116383575,83.74990333,97.092808475,15.6101178475,17.0779816725,17.9800758575,16.5836108275,-5.09989549975,-26.195895,-12.049651665,-61.8741091675,0.05064134475
2,21.25,-10.3015844125,13.88772773,2.489076386,-0.01241470625,404.1672412,10.868593775,2.26937392925,0.17718113,16.087977525,88.334135,97.10115893,15.1472773275,17.0693041775,17.7527808325,16.1417342,-5.730303,-26.988991665,-13.0495899975,-60.6625675025,0.0519771635
2,21.75,-13.44042548,10.13563339125,2.892911205,-0.0100299245,403.90004755,10.9863334975,1.93617104075,0.158171897,16.068924975,86.1737575025,97.1101840925,14.6057979625,17.0459691725,17.467505825,15.6852775,-6.2348738335,-27.44717417,-13.88719583,-61.208846665,0.04899819475
2,22.25,-8.1582790615,19.0015099375,3.3164549095,-0.007916764,405.1400791,10.7258028175,2.0308496045,0.208503068,16.175785025,83.64803,97.11525732,14.4625879325,16.9199358225,17.2361092,15.21763915,-6.66209149975,-28.0910350025,-14.43879417,-63.189855,0.05064138975
2,22.75,-8.78675400025,11.78727323,3.171578481,-0.009531499,404.9981242,10.64397741,1.71443202675,0.184580514,16.15777915,83.5213208325,97.09800356,15.178443585,16.8550700025,16.9976358,14.80270835,-7.03615749975,-28.1370091675,-14.8986575025,-60.84775,0.05363244475
2,23.25,-6.725416423,9.499217202,2.444527319,-0.01175600625,405.265903025,10.4789689225,1.9316566725,0.17183191875,15.76646915,83.83390917,97.117869765,14.9619545975,16.7615291725,16.7809025,14.6159741725,-7.1913985835,-28.652579165,-15.2055766675,-59.8577150025,0.04899756825
2,23.75,-6.08388870575,6.535430915,2.38017049225,-0.01159126675,405.55167935,10.490789815,1.788368659,0.18302986075,15.297690025,85.4130374975,97.1229586675,13.841808575,16.7339541725,16.539722475,14.29951,-7.4943035835,-26.6471675025,-15.62008333,-59.82641583,0.0466800935
3,0.25,-3.4950438495,16.548593785,4.853958912,-0.01255382425,407.634077075,8.983906594,1.738884586,0.206470678,15.67714333,88.7544600025,96.9659588875,12.723997465,19.73403,19.3915283575,16.8865916725,-8.12081191675,-33.968874165,-16.974985835,-54.71499833,0.0559499185
3,0.75,-4.89278206625,9.10979638375,3.7024224665,-0.01145831975,407.85526105,8.688155421,1.361088469,0.1802162635,15.224518335,88.57131583,96.9517481925,12.97954556,19.6123624975,19.164167475,16.723254975,-8.28026516675,-33.8370533325,-17.3683449975,-54.0849991675,0.053
3,1.25,-4.45830996,7.509485438,3.1113550515,-0.008364948,407.670351125,8.63500834175,1.469324563,0.15086607,15.4598566775,89.6504625,96.939340105,12.6921961475,19.4927783275,18.997296675,16.575139175,-8.34079591675,-33.54356417,-17.63888333,-51.7755041675,0.050305445
3,1.75,-1.60693439125,10.22168775475,3.0456722545,-0.00818744325,408.1850471,8.665430274,1.500941299,0.16526122725,15.617144175,89.8554708325,96.9150754025,12.778529545,19.417644175,18.7929125025,16.2812516925,-8.3452624165,-33.8869400025,-17.8281241675,-54.8553133325,0.05064137025
3,2.25,-4.2420256755,16.252336235,3.3373404605,-0.009536905,407.2019619,8.64556077375,1.508775503,0.16480918425,15.046089165,89.99899083,96.8979660875,12.6253817025,19.328889175,18.6405566775,16.03333333,-8.34469700025,-33.46411917,-18.04421667,-58.64079083,0.05561886675
3,2.75,-5.287010173,16.57233139,2.9029883215,-0.0098155235,406.8585269,8.91035940675,1.594397112,0.17294453425,14.9407358575,89.2208724975,96.879916465,12.6973436425,19.167357525,18.4604174975,15.823749175,-8.454703917,-33.3199275,-18.0687275025,-56.292439165,0.0480043565
3,3.25,-1.51092899,15.552670765,2.490561605,-0.01085314775,406.54554135,8.843241002,1.50772125,0.15479503725,15.5197891675,88.5957108325,96.86341507,12.56433616,19.064857475,18.31471915,15.4895091925,-8.7390905835,-33.69322833,-18.24173833,-62.45827833,0.045006195
3,3.75,-5.4337687125,13.4915383675,2.26236855,-0.01041495125,408.65535315,8.18456122225,1.49137390825,0.15936396425,14.7595750025,89.33014083,96.85489128,13.1416154275,18.9422242,18.1265333075,15.225135025,-8.75393425,-33.65007083,-18.30672917,-62.6904600025,0.053301413
3,4.25,-5.9138908415,19.163430575,2.97383476175,-0.01094290325,408.96035835,8.1830241395,1.63834561375,0.159244572,14.6149133325,89.01058333,96.8683707975,12.49042961,18.8396508325,17.96007,15.079933325,-8.870669333,-33.22176,-18.4927075025,-64.55129917,0.051942575
3,4.75,-6.22355812525,22.263788865,2.9583279895,-0.0103660075,408.533092775,8.50593542425,1.72626010575,0.173378803,14.8393700025,88.1932516675,96.8872279325,12.465079825,18.7372200025,17.7874966925,14.7943724975,-8.8836171665,-34.8714016675,-18.733145,-60.76607167,0.050636515
3,5.25,-6.2538219575,26.106956305,3.825643254,-0.01084827725,407.616768675,7.77105187,1.762948585,0.1817000525,14.65326083,84.4679875,96.9126462875,12.77436998,18.6648608075,17.5948616675,14.6477158,-9.058762083,-34.70685,-19.702120835,-59.2845699975,0.094353427
3,5.75,-2.8632659955,18.2129380025,2.801999849,-0.00945527575,406.9325053,7.3627689225,1.58704984325,0.1553176795,14.79992,83.1729966675,96.918443575,12.3577743325,18.5823608225,17.3819458325,14.3577783075,-9.18544791675,-34.18313667,-19.11249583,-59.74499,10.04616113275
3,6.25,-3.9204211465,25.58207867,2.2414512315,-0.01011823225,406.889521175,7.1987258625,1.52356291125,0.1747315715,14.622236665,85.088834165,96.9213121475,11.44704997,18.4081899975,17.2507658325,14.135560025,-9.2301179165,-33.866249165,-19.5454916675,-47.5267458325,61.6809991675
3,6.75,4.72469082275,26.7539534125,0.369193755,-0.01152257175,405.62136245,8.53203896675,1.47334606275,0.1940468915,14.9246800025,85.69846286,96.953502585,10.45787031,18.3549975025,17.0966683325,14.0829332175,-8.684158833,-32.35152917,-18.842575,-23.32989215,104.909115025
3,7.25,12.53603365,37.027383825,-0.31975465475,-0.00976998075,405.80543845,10.6150613875,1.2602398475,0.20480457375,15.17204083,82.42438583,96.999291375,11.72349059,18.2081958075,16.9083366425,14.057565825,-7.90046025,-28.4618449975,-17.3685958325,78.189522975,410.6063667
3,7.75,43.6349600675,67.0235123875,-2.875015888,-0.01242779875,407.6131917,13.042368705,1.3778833885,0.22319883825,16.8617375,76.8756016675,97.02874242,17.0508283575,18.0529833075,16.769172525,14.0894450025,-6.9531788335,-25.4522725025,-15.6499125,218.6866583,733.169949975
3,8.25,69.8903574225,95.54526367,-4.5698292165,-0.018127417,408.025257575,14.242525345,1.692829231,0.271397794,18.46398167,72.2979725,97.04023352,19.6183647975,17.998890835,16.7059758075,14.4049291425,-5.5145323335,-18.7817924975,-13.087476665,303.614241675,952.70795
3,8.75,101.39593075,125.416442925,-4.876893671,-0.0167277835,406.829016025,13.59120498,2.266264693,0.2805797235,19.588316685,66.731558335,97.03745733,20.82748802,17.950005,16.46028,14.99236,-3.8254233335,-10.721464835,-9.623542333,391.9450333,1170.4831835
3,9.25,126.98307055,149.9429624,-5.85574835575,-0.0244163425,404.5070854,13.58492211,2.24738306925,0.30518322025,21.395488315,62.18295833,97.0443325425,23.6994967325,17.89999667,16.436666665,15.63513835,-1.659169083,4.400545735,-5.1083905,461.30066665,1352.3236165
3,9.75,149.92805765,187.9259096,-6.2275738025,-0.035532877,402.6258052,12.67451322,2.379797155,0.3301399485,22.9339533,59.93433,97.04270675,26.1251085,17.845828335,16.556324175,16.416045,0.34183667475,31.522734165,1.46673117775,517.384149975,1524.60825025
3,10.25,169.46908965,185.0131579,-6.0164179515,-0.046132748,401.4578436,12.081855305,2.66710524475,0.3531547675,23.7950458275,57.09258917,97.0327760125,27.21685198,17.73610917,16.69263585,17.3163975025,2.31982815025,61.3167075,7.59422216675,558.93596665,1636.95225025
3,10.75,189.698912375,203.441269375,-6.3134788745,-0.05213726,400.87981455,11.56676633,2.9217213975,0.35872797325,24.8010650025,56.651976665,97.0075826325,27.28780178,17.713468335,16.7731958,18.373615,4.513873642,86.41642417,13.9858091675,588.447258325,1747.9828335
3,11.25,205.036682725,211.157999925,-6.3789045955,-0.0771862475,400.21308355,11.136272,3.3589331205,0.42373882275,24.730505835,57.385834165,96.978805,24.8743294125,17.71291333,16.9975033575,19.725283335,6.60710225,99.9263925025,21.980109165,606.389774975,1793.41375
3,11.75,223.826738675,207.25836395,-6.41474054575,-0.1098239955,400.4953881,11.6023835475,3.689563076,0.4553297505,24.7980158325,58.070979165,96.95397368,24.52631508,17.7533350025,17.2740275,21.4236033075,10.4517764175,114.944016675,37.339975835,609.076625025,1827.733833
3,12.25,220.61707935,229.995402575,-5.820563069,-0.125131183,400.5221006,11.718337375,3.58907248525,0.45056021075,24.534174165,58.0833974975,96.938481775,25.0841983825,17.89832667,17.6504166775,24.0890258075,11.434595,121.71175835,54.253894165,600.62135835,1833.77124975
3,12.75,231.63520665,222.1461269,-6.5756324175,-0.1350805865,400.51657805,12.1986668625,3.616786158,0.448390767,24.335852525,59.9092975025,96.90104396,26.487688045,17.9741725,18.1610408325,26.30882,14.052290835,124.338099975,69.3839950025,580.746391675,1801.10275
3,13.25,231.229302875,228.0128411,-6.2991868125,-0.14590061475,400.262949125,13.03745429,3.8323018345,0.45132916975,24.31802835,60.7709183325,96.88321403,26.1802757075,18.14014,18.8063841725,27.616875,19.8675575025,125.271100025,77.996648335,544.78865,1727.3994165
3,13.75,218.549738975,200.417492125,-6.3428446215,-0.152033858,400.616887625,13.3467747625,3.74888397925,0.46758683425,23.719910835,59.8276974975,96.8789195625,24.95390089,18.4659658325,19.48888333,27.7022924975,35.085908335,123.042624975,84.576991665,499.309350025,1622.4015835
3,14.25,215.218077075,188.2120749,-6.344388344,-0.15203834875,400.61237815,13.162259685,3.7689230835,0.45338836325,23.7427974975,59.4285274975,96.848632325,24.58331202,18.734096665,20.2020874975,28.1656241725,55.219616665,116.8334083,86.720153335,441.476558325,1491.381667
3,14.75,189.018248675,160.28683685,-5.5221407865,-0.138397719,400.5557482,13.51730665,3.7453412945,0.463545697,23.46954417,60.836848335,96.83182767,24.03209669,18.9931958325,20.8624983,27.75701333,59.748681665,106.09838665,85.58789667,370.146174975,1314.4786665
3,15.25,175.2092571,153.08246265,-5.09291176025,-0.127723623,400.835223575,13.0554214025,3.64527699525,0.440245634,22.59845667,62.8043600025,96.82818972,22.94857354,19.2161058,21.37194415,26.865622525,56.520415,91.09995583,81.48519833,294.288400025,1127.567583
3,15.75,154.989597075,156.5762933,-4.4173461845,-0.1168528235,400.8958361,13.5714988875,3.406279166,0.42244182625,22.5148266675,63.103600835,96.826196905,22.80386934,19.48346833,21.681252525,26.3099300025,51.317003335,73.0220658325,73.0129158325,209.9478833,911.300900025
3,16.25,122.49661465,105.47580155,-3.69411033725,-0.10137812225,401.277100875,13.46916197,3.3432689675,0.3998751185,22.60619833,65.5055174975,96.8281661275,21.32226862,19.6537541925,21.905834975,25.739583335,45.8831916675,57.1769,60.9026499975,120.8697642,679.755091675
3,16.75,79.448101975,79.7555367,-2.753526069,-0.067482384,401.76516745,13.448601045,2.883108524,0.34339487225,21.72511583,67.0877899975,96.84345347,21.04394526,19.8786091725,21.97958415,25.078819175,35.697484165,41.1713933325,39.9110108325,47.29660208,460.23523335
3,17.25,37.1002598625,43.7063768775,-0.8363835575,-0.036431269,401.40707735,13.79563973,2.54237914925,0.29077636425,20.666390835,71.0007658325,96.8282886,14.28579672,20.10819165,22.01486,24.326946675,25.998536665,23.1004075025,25.335310835,-27.650482165,225.195775
3,17.75,3.23985734675,23.793221195,1.4205930185,-0.0152722625,401.89465275,12.17822191,2.06020280475,0.2213628575,19.292885,76.04804333,96.837903305,15.0043184625,20.21138665,22.0184725025,23.3965291775,14.209972835,5.0394732185,14.1594600025,-65.2222008325,49.6259400025
3,18.25,-6.69081401525,17.64864716,2.8368905515,-0.01266818275,403.1145726,10.658030745,1.89641486525,0.2083287855,18.084874165,80.7591816675,96.8692323375,16.6749772475,20.2854158325,21.9400041925,22.45277415,6.297835,-9.6287025835,5.7809301665,-74.76371917,2.55913076475
3,18.75,-8.2678540035,14.35759111,3.85436517625,-0.01189230575,404.4919028,10.742096285,1.6142321095,0.16453304725,17.395326665,83.8287908325,96.894058085,15.317489155,20.2991591675,21.8609725,21.6519475,1.38840814775,-19.6349175025,-1.44166846325,-72.9158241675,0.0662129
3,19.25,-5.97000046825,13.87300084,3.392436362,-0.00981778375,404.876087,10.4616554,1.433533621,0.16561828825,16.811830825,84.9691700025,96.917066,14.194577485,20.3120816775,21.6680566675,20.9645816425,-1.113632314,-25.3654924975,-6.58777216675,-68.5922308325,0.061246948
3,19.75,-4.89421193125,11.787903005,3.950211314,-0.008541695,404.85640665,10.4353269025,1.68841813275,0.14571377525,16.3202808575,85.2594649975,96.9264770375,13.7798845,20.3043066675,21.4752766425,20.411247525,-3.28180966675,-29.0847183325,-10.05230383575,-66.511316665,0.05992270475
3,20.25,-6.328853248,14.702044295,3.8792491465,-0.00694529625,405.373794825,10.6143854125,1.78409136075,0.13673196025,16.1553033275,86.1108524975,96.93993386,13.40383182,20.29790667,21.2083374975,19.871664975,-4.66139658325,-31.4132233325,-12.0273508325,-65.707675835,0.05992895825
3,20.75,-6.745002307,13.66553203,3.47029933625,-0.0088384595,405.47318785,10.1385806335,1.78267104475,0.14821350525,15.45752833,84.622888335,96.959550595,14.299702105,20.2895724975,20.9694416775,19.28166665,-5.89026575025,-32.974381665,-13.732208335,-60.59805083,0.053632425
3,21.25,-9.618623695,9.59737824575,3.618532756,-0.00970317175,405.72776845,10.19992291,1.7312989245,0.1607388665,16.0829533575,85.612804165,96.970451665,13.629630285,20.2898499975,20.704863335,18.87819165,-6.7015875835,-32.9157308325,-14.93498667,-58.965084165,0.062240138
3,21.75,-4.24799150525,8.758875894,3.28826678375,-0.010488494,406.451465875,9.80107157275,1.756312398,0.169233982,15.5451375,88.33491833,96.9729571425,13.08256693,20.218888325,20.4202808325,18.453884175,-7.2431368335,-34.0046024975,-16.08093167,-55.33599642,0.053323645
3,22.25,-5.54465759475,8.281786036,3.188345224,-0.00932659125,406.37733385,9.51598645675,1.7383253995,0.162190501,15.8770983325,87.92345833,96.9798992025,13.26457113,20.1093116775,20.20514,18.0529883075,-7.743380917,-34.88566833,-16.3999558325,-59.9952799975,0.0529703365
3,22.75,-2.11526095175,9.820398057,3.094837468,-0.0104753575,408.323549075,9.52893746,1.706996958,0.16833223925,15.446971675,87.2469766675,96.9737472125,12.708339715,19.95694917,19.9968066675,17.741805825,-8.11838049975,-34.2753024975,-16.88489833,-46.7013874975,0.0549567335
3,23.25,-2.3190044635,11.63499736,3.229735872,-0.01105375,406.78631035,9.36538229725,1.63308379075,0.188197842,15.70492083,89.3957475025,96.96261531,13.123214525,19.9011091425,19.8286150025,17.385974975,-8.56555791675,-33.466636665,-17.30989833,-47.38210667,0.05297033025
3,23.75,-5.06874116025,9.219213339,2.6377231295,-0.01132061375,407.2861526,8.6440077255,1.714226831,0.1750550195,15.5670541675,87.955651665,96.95951153,12.6757779875,19.8597283075,19.583888325,17.1752141425,-8.28221608325,-33.434885835,-17.432870835,-53.2143075025,0.05297776025
4,0.25,-1.79062611825,3.8445400125,2.5315287105,-0.01039894175,408.590192075,9.37721844225,1.51799203075,0.178716767,14.74074415,86.62245083,96.8007767325,14.250152645,24.2285508275,23.89875415,21.2538916725,-8.83807025,-35.33908833,-18.498326665,-63.8474325,0.052970338
4,0.75,-5.44136102175,5.3042822965,2.823304444,-0.01069902725,407.30326785,9.14964392875,1.82295449475,0.19413553275,14.767494975,87.1047766675,96.78932514,13.782249115,24.1689583075,23.70930665,20.9497258275,-9.0780999165,-36.60839833,-18.83343,-64.4506866675,0.05429595
4,1.25,-6.955377947,5.8002724145,3.40312340925,-0.00888761225,407.16059705,9.116713222,1.767431373,0.17598550925,14.924410825,87.2500674975,96.7769498175,13.358929,23.9770833275,23.49263585,20.602919175,-9.3441113335,-36.82403083,-19.0410433325,-65.44165917,0.051942585
4,1.75,-6.02683063275,5.176940575,2.431191198,-0.011186898,406.9757265,8.48378036175,1.75308537625,0.1708721935,14.651535,86.98987167,96.7610264675,13.65119104,23.8038175,23.2784783225,20.2525,-9.5696084165,-37.0050483325,-19.156823335,-65.1643925,0.048998185
4,2.25,-0.66008771775,4.04055474775,2.8285693315,-0.00904787775,406.7758602,8.80345225225,1.67643823,0.17127723475,14.5369992,86.89832083,96.7720267775,13.3999554125,23.6727766675,22.9514599975,19.8790325,-9.702260333,-37.2491508325,-19.5748824975,-64.33483167,0.05195
4,2.75,-7.42174777475,5.931253506,3.0591687195,-0.011361383,406.9968441,8.3808799005,1.48825612875,0.169342896,14.3585825,86.448794165,96.7542843725,13.85988714,23.630132475,22.739725,19.5016666675,-9.754337417,-37.1190416675,-19.8920600025,-63.9769524975,0.05030545
4,3.25,-0.291217308,5.865530067,2.47253409675,-0.009851988,407.4417603,8.8544174345,1.509648279,0.17483943225,14.0103358275,88.0333624975,96.7494389525,12.48552859,23.4684758275,22.5080583275,19.1815333075,-9.8512815,-37.7459541675,-19.87018333,-63.556609165,0.04999077025
4,3.75,-2.8101956685,7.4484624515,2.7233877545,-0.0090618555,407.5262558,8.704272306,1.36802426975,0.18253928775,14.1159925025,88.4003191675,96.7602130475,12.28730859,23.337360825,22.2601391775,18.896805825,-9.97460383575,-37.161423335,-20.0937233325,-64.246453335,0.0477
4,4.25,-4.6752783585,8.8470761725,2.59630625975,-0.009384567,407.72056185,8.608649655,1.37525396575,0.158260152,14.2125066675,87.4653266675,96.76295962,12.84249723,23.1938891775,21.989174175,18.675979165,-10.04359033,-37.6105000025,-20.4010225025,-63.44914,0.04534359475
4,4.75,-5.39278541775,7.468640924,2.6498050375,-0.009171925,407.2115761,8.499843317,1.641637975,0.15619321875,14.1745141775,87.8434916675,96.7524914725,13.13475053,23.020415825,21.7899975,18.3269441775,-10.1310825025,-36.895049165,-19.9833666675,-61.6615833325,0.3353685615
4,5.25,-6.20926698825,8.6330678285,2.3526265955,-0.009782477,407.025546125,8.17150025175,1.43923093675,0.1567216415,14.0192783325,87.294641665,96.76192294,13.6163321725,22.8431875,21.585285825,18.0287516775,-10.185731665,-36.4645308325,-20.0002366675,-58.593294165,17.372955085
4,5.75,-0.66344412075,10.657103587,1.3324516825,-0.00958853325,407.685319575,8.227703801,1.3982897295,0.1473424395,14.074135825,86.751723335,96.7870559675,11.5824521925,22.750829975,21.3893058275,17.88306,-10.119810835,-36.264586665,-20.0554899975,-41.7733350025,70.8005150025
4,6.25,5.29816635625,21.67288503,0.437746108,-0.0109454115,407.375270875,11.157125855,1.24421054825,0.1696316985,14.7133333275,86.178130835,96.832223615,10.1923321825,22.6297208275,21.1712541725,17.689028325,-9.49972075025,-33.7156558325,-19.4878591675,14.16050775,211.4219425
4,6.75,34.67395091,40.02512676,-1.3660910375,-0.01081196125,408.8609826,11.8957491375,1.213185011,0.17244024475,15.436105025,82.914189165,96.8797537225,13.39155787,22.4628500025,20.9848674975,17.654026675,-8.706917417,-30.2543833325,-18.0445075025,136.355255825,513.07018335
4,7.25,71.239680225,67.2284124525,-4.1221803155,-0.017032241,409.79128785,13.7484861825,1.454437166,0.228816274,17.089188335,80.12803833,96.8783134425,17.2077232225,22.3845833075,20.777083325,17.8281933225,-7.20938,-24.1123283325,-15.952483335,229.769466675,753.201383325
4,7.75,97.1654969425,84.3470245825,-4.101481831,-0.0189128605,409.51705555,13.927015065,1.36060815875,0.25757399725,18.6723183275,75.2284425,96.875624865,17.48293844,22.1620833275,20.6366625,18.037782475,-5.3626266665,-20.0135349975,-13.5242166675,323.29426665,1014.0286
4,8.25,132.379184725,109.58050775,-5.3589144635,-0.027759101,408.06988305,14.2886955975,1.87001565825,0.28424491625,20.3878358,70.1503925025,96.862780165,19.2243917375,22.043403325,20.493892525,18.579647525,-3.59311274975,-12.68575433,-10.8526657475,399.70424165,1221.719558
4,8.75,151.88853005,131.5246296,-6.00076704925,-0.041763913,406.123858125,12.4376039125,2.0713000955,0.3227562185,21.65339665,66.294553335,96.85703385,21.4419200325,21.88554835,20.45666665,19.04527835,-2.091560267,-4.1777453435,-7.2208055,472.66378335,1420.776
4,9.25,200.461740575,144.054432975,-6.176899972,-0.048880906,404.19461725,11.60037039,2.28073289025,0.34858241275,22.88387917,64.6347108325,96.864632585,20.738799105,21.828605025,20.398335025,19.625003335,-1.13766403325,16.1815205025,-3.699692233,529.06556665,1588.55150025
4,9.75,214.3038263,153.7774704,-6.016986917,-0.0625168735,403.3436694,11.899078475,2.62888815975,0.37880450975,23.9313233325,62.807570835,96.8535163025,21.2453378525,21.8183383075,20.393333325,20.1463866925,0.06742901775,44.40999917,0.41977399275,576.549325025,1730.529833
4,10.25,250.43554125,149.2378022,-6.043259761,-0.0943404505,403.0491858,12.753510935,3.186471512,0.420871644,24.5104174975,58.5485341675,96.847390365,24.2297449675,21.791390025,20.419300825,21.1461133075,2.33698899975,66.616695835,6.04326300025,609.40025,1840.71974975
4,10.75,267.050068075,158.4245126,-6.31103574,-0.137943584,402.72654,12.37511281,3.54528537325,0.458423726,24.6715633575,58.058965,96.82094965,23.98109582,21.787225025,20.562915,22.6129183,4.687294083,83.8756425,11.7896595825,632.794741675,1928.07475025
4,11.25,286.807689,172.500869,-6.38604132575,-0.14890844,402.659870075,12.410922195,3.78095264575,0.4751276085,24.526363325,56.01328167,96.8136997225,24.95393448,21.787087525,20.92680835,25.303610025,6.94679016675,100.15127915,16.749631665,642.2156833,1992.58375
4,11.75,296.9825463,152.97425865,-5.89430488075,-0.15886460025,402.20279825,13.01653534,3.6896384805,0.5130237075,24.76391835,56.662211665,96.807734925,24.60197933,21.80611,21.12277835,28.8015267,12.276081835,107.52513335,25.295376665,640.2838667,1999.557
4,12.25,301.8125701,164.11395775,-6.454075454,-0.1690731225,401.52574855,12.81801226,4.060828955,0.520690886,25.28924165,56.210818335,96.793660535,24.26031604,21.8288892,21.752157475,31.8843058575,22.084416665,115.16205,38.536841665,629.432441675,1994.349667
4,12.75,306.678348825,163.26490805,-6.2945090495,-0.1768081225,401.9555238,13.1051118,4.1654975485,0.512070369,25.157504175,56.3855941675,96.7764480025,24.22925357,21.889022525,22.5326416925,34.5702058575,41.9786716675,118.680424975,53.36898917,605.25755,1958.971583
4,13.25,302.2284038,164.76275745,-6.17333847225,-0.2026115345,401.842951675,13.33483392,4.09094108425,0.5070183405,24.8911724975,56.7903016675,96.74986874,23.9859288,22.1392333575,23.4041658325,36.54131915,58.255435,118.752733325,66.35162,565.911275025,1871.686167
4,13.75,296.362317225,161.978165,-5.966012081,-0.15676376075,401.783107975,13.0918170325,3.9366158695,0.50222922375,24.8610866775,56.6891041675,96.7271826075,23.7135728525,22.5889608325,24.2172891675,37.9454891925,66.9581208325,115.08060835,75.67293167,515.501699975,1757.4555
4,14.25,287.151734475,144.5157095,-5.747291999,-0.17114948975,402.0327041,12.87544864,3.82567429225,0.512758243,24.5544691425,58.073835835,96.6957024625,24.283110745,22.9759041775,25.01965167,38.77770335,71.165063335,107.9024,78.723098335,460.7345083,1621.940592
4,14.75,259.03186975,123.1626321,-5.5907498145,-0.157619709,401.877754675,13.00353853,3.783666449,0.5048164955,24.6440550025,59.460805835,96.677987535,23.13671912,23.469234175,25.854371665,38.900975,70.729613335,100.9113283,80.25022667,396.98896665,1453.83575025
4,15.25,236.646162725,123.023140375,-5.1815840455,-0.14249454975,401.74519495,13.23412476,3.78495898675,0.4786316825,24.321216675,59.8349874975,96.66718513,22.83167876,23.8039566725,26.5693108325,38.0794417,65.3479375025,90.3832350025,78.064223335,320.267625025,1246.052583
4,15.75,209.222317625,109.2915864,-4.546453424,-0.128557433,401.7382485,13.13483526,3.42684027525,0.4617728175,23.5089675,60.2275508325,96.6638869275,22.88622528,24.2197233325,27.0760374975,36.9174999975,59.393125,76.1277374975,74.486025,234.06958335,1036.020908
4,16.25,167.8956099,90.85918867,-3.97734183275,-0.09079401375,401.68274505,13.22606624,3.200123088,0.4257528355,23.2732258,60.8201858325,96.6649295775,21.95066579,24.5135416675,27.409166675,35.2134041675,51.9189525025,62.31866333,67.82523417,150.868786675,809.2321583
4,16.75,129.576381825,77.2711070875,-3.0885341855,-0.084706533,401.6835594,13.20527698,3.1183630125,0.385631744,22.4833758225,62.66160833,96.6715187125,20.4487983375,24.70111167,27.6466666775,33.6542383275,42.343904165,47.972809165,55.2464350025,65.4268875,572.426474975
4,17.25,86.8336380325,47.50437623,-1.51637736675,-0.06741989175,401.901007175,13.46215961,2.9969053795,0.35183280725,21.570664175,64.9695508325,96.6837306375,19.37930604,24.9097883075,27.779999975,32.258265825,32.375335835,32.284559165,39.0613975025,-8.79435222775,354.9368083
4,17.75,31.983318385,26.69460441,-0.36977242375,-0.04424,402.04481135,14.235008795,2.47947139425,0.27896735825,20.06326,68.9425950025,96.6798107025,12.831538295,25.0194483325,27.645625,30.99680665,22.077690835,14.8587669175,24.1544474975,-52.5562575,150.32490415
4,18.25,2.22700342125,24.77476156,1.8357372215,-0.0217228245,402.2371149,12.0128746925,2.08044387675,0.238956986,19.0381733,76.0097525025,96.6758942925,16.475584655,25.1235508325,27.48729165,29.7720833,11.5466707475,-0.25699634975,13.056079415,-79.5178524975,25.9425601675
4,18.75,-6.3334627835,8.0088653265,3.021197642,-0.01376985175,403.417928,11.07051697,1.767247387,0.19192598375,18.151072525,81.513799165,96.705054585,16.7063042875,25.2006916775,27.254166675,28.5625008,4.0443057915,-13.0536859175,4.11598692525,-80.837928335,0.59889584325
4,19.25,-5.70731236375,5.387453239,3.0025054625,-0.010023502,403.776479525,10.39185287,1.7563531795,0.17416986225,17.55716165,82.58447417,96.7441243825,15.845088305,25.2066633225,27.038539975,27.43784915,-0.9903380635,-22.7263725025,-3.046285881,-76.62526333,0.070185677
4,19.75,-6.67166455225,5.23601382925,3.40332322475,-0.00785333425,403.9416567,10.708774095,1.7083619235,0.164914015,16.8583625,83.73989667,96.7838148725,15.25394466,25.20597,26.775005,26.41722,-3.3563351665,-27.1767216675,-7.578119333,-72.3051450025,0.0662128815
4,20.25,-4.70340728275,7.75740490625,3.124715137,-0.0081088815,404.77138065,10.80258646,1.680451082,0.15622454775,15.64426835,83.9292316675,96.8219479525,14.719271255,25.2002708225,26.49374915,25.5577799975,-4.94544525,-30.8935583325,-10.9067665025,-72.5703091675,0.05992267525
4,20.75,-6.96129655525,4.609214024,3.39488051575,-0.00983767425,404.645297475,10.44759687,1.5301420655,0.1599846535,15.4091283225,84.730568335,96.824796555,14.53383352,25.1745750025,26.230071675,24.8106241675,-5.89846549975,-33.402445835,-12.9062308325,-69.29022167,0.05859842325
4,21.25,-5.200170574,6.115248468,2.555949982,-0.00806621275,405.16208775,10.267742585,1.58258895775,0.1443364845,15.8203083575,83.7799824975,96.8282292125,14.4117084825,25.061249175,25.87583335,24.1222866675,-7.0096949165,-34.8825633325,-14.5500349975,-68.1282225025,0.06090397175
4,21.75,-3.04832683075,3.37702977925,2.41208391225,-0.01090240975,404.484200475,9.977773314,1.61711771375,0.153562382,15.630235825,84.808953335,96.8231008225,13.907888715,24.979095,25.565065025,23.54902335,-7.78494200025,-35.4613474975,-15.9683775,-66.4753449975,0.05297036675
4,22.25,-4.57437941275,7.829151543,2.70520140225,-0.01012197525,405.19519665,10.03492448,1.79862580475,0.15293630625,16.103521665,84.7457766675,96.821165915,14.55144839,24.819099175,25.2495842,22.9894433325,-8.0633071665,-35.4529925025,-16.926575835,-59.13717917,0.053301385
4,22.75,-1.58891978475,4.773728271,3.161792025,-0.007651467,405.601293325,10.09254843,1.768582538,0.18540457675,15.645739165,85.96041583,96.8130005475,14.18059182,24.7755549975,24.941804175,22.5437575,-8.3977075,-35.6589825025,-17.206374165,-63.35727917,0.05330140325
4,23.25,-2.8065790935,4.136837783,3.31771426675,-0.009277705,406.13571075,10.166150925,1.57144866725,0.1768148135,15.525638335,85.8632408325,96.8040196975,14.624503895,24.6659008275,24.6628483,22.0984691725,-8.558970167,-35.476715,-17.557945835,-60.991180835,0.05462095525
4,23.75,-2.1489227535,6.13738349725,2.74611202275,-0.009813048,407.56356095,9.966319819,1.6496353295,0.1671623915,15.760456675,85.9687149975,96.81189798,13.618794025,24.4626375,24.32021,21.72777915,-8.5525524165,-35.8551558325,-18.0201741675,-61.1637575,0.0516
5,0.25,5.7313264625,5.988721973,2.428032439,-0.00964999325,400.806147,12.26636743,1.38962158875,0.1640384355,13.68046165,91.6915733325,96.6712977975,12.208643885,27.1945833,26.9311083325,24.138195,-8.71095983325,-30.3169991675,-17.007555,-21.322855,0.04800498025
5,0.75,6.5610576155,4.73480309,1.964872419,-0.00668140775,401.9927946,11.6270582,1.4328362925,0.17551286475,13.5743566675,92.3131308325,96.6479866175,12.491225105,27.0877083,26.666461665,23.822360025,-8.5363530835,-30.284968335,-17.194390835,-22.1405349975,0.05161152675
5,1.25,5.4819591595,4.2866537675,2.243907603,-0.0097203205,402.5283755,11.6827370975,1.58054428625,0.17481745225,13.41847835,92.392206665,96.6296185525,12.4012974575,26.897290025,26.3843033575,23.5923666425,-8.45043424975,-30.2772083325,-17.3819258325,-21.571469165,0.048024395
5,1.75,4.56876979,5.405347253,2.2969356995,-0.008113709,402.131129675,11.66177037,1.53175917725,0.18556866275,13.3329133,93.0981799975,96.607700855,12.16962727,26.693129975,26.1912525025,23.349584175,-8.2684193335,-29.8033333325,-17.27334333,-19.9802316675,0.04500619325
5,2.25,4.7497839755,4.514548157,2.465141091,-0.00983608725,404.46472085,11.455738745,1.44670304775,0.1641353475,13.188898325,92.142318335,96.60487719,12.8954545375,26.5975,25.91833335,23.0888208,-8.0551639165,-29.4343741675,-17.11654167,-19.6969650025,0.045006185
5,2.75,4.50397628975,4.392446012,1.75228929,-0.00975880525,404.3067607,11.37372374,1.48162244675,0.17018014525,13.32275,92.7653366675,96.5795231225,12.29592581,26.4087483,25.67604085,22.819234975,-7.946345583,-28.8750791675,-16.7058350025,-19.3321333325,0.0463490365
5,3.25,4.45114845425,6.809127678,1.911138969,-0.00798776675,404.81835775,11.07666016,1.371881816,0.17156958625,13.346994175,92.36130417,96.581998875,12.3789513,26.2236791725,25.5350641925,22.6715283,-7.87716316675,-28.31686083,-16.659761665,-20.191195835,0.04697438325
5,3.75,4.904889956,7.140268238,2.375240825,-0.01105502075,403.53388965,10.972686735,1.3403328255,0.15930817775,13.2665158225,92.34762,96.5819678,12.3751471525,26.05791665,25.314025825,22.4535433,-7.876259917,-28.082803335,-16.4198625025,-19.21100583,0.04767996975
5,4.25,3.148991046,6.844728737,2.296945932,-0.0112866755,405.4289371,10.9789194525,1.36070252975,0.1660728405,13.224945,92.362728335,96.5731600025,13.83651851,25.849582475,25.05625,22.2914574975,-8.1552755835,-28.06938333,-16.449428335,-18.803236665,0.1125619885
5,4.75,4.0790407055,8.5981861405,2.35315307425,-0.00890332025,405.779212825,10.9213250525,1.33763156975,0.1847556225,13.0681566675,92.461134165,96.583107485,14.0393270275,25.6602041725,24.842219175,22.0210391925,-8.062628333,-27.5933058325,-16.2722749975,-17.9957525025,7.54264639175
5,5.25,7.180109483,10.196172835,1.911529219,-0.009022647,404.10535275,10.983935185,1.30839206325,0.1865522625,13.1321408075,93.180285,96.6078732375,12.92894037,25.6228441775,24.684375835,21.8137550025,-7.81298516675,-27.2462799975,-16.1433974975,-12.78934875,49.219714165
5,5.75,12.0939605675,12.71972155,0.7276988205,-0.0095803915,403.6780102,11.64550848,1.4529100075,0.18493051625,13.301895025,92.938780835,96.6320706675,11.484846915,25.531739175,24.438190835,21.7069408575,-7.7145145835,-26.493635835,-15.820086665,3.65475223425,116.870172475
5,6.25,24.407661505,26.61338045,-0.4676029595,-0.01425772275,407.489932125,13.27497117,1.409890799,0.19803132925,13.6145516425,92.07665667,96.6515341525,13.02156641,25.384444175,24.28138917,21.568470025,-7.47929199975,-24.49579083,-15.04639417,79.0235154175,379.4057667
5,6.75,57.9783539225,55.827664755,-2.3371926195,-0.01775277925,408.82739775,14.55746311,1.50450174925,0.2165955135,14.3769075,88.529800835,96.665714165,15.8696052375,25.2033325,24.0865283325,21.770835025,-6.393677333,-20.9363616675,-13.7454250025,168.48643335,607.13299165
5,7.25,105.89330115,76.172661875,-2.7501240005,-0.022338545,407.89607605,14.5718963425,1.5901529385,0.2429417425,15.45636,84.63574833,96.685597595,18.19268412,25.083885,23.840555,21.91610835,-5.071764167,-16.39683833,-12.36831167,274.34065,832.74576665
5,7.75,128.4670311,74.36967672,-3.3794087255,-0.032336296,407.3542417,14.8392864925,2.02453988975,0.292854447,16.3773592,82.79821667,96.6978456875,18.8016660025,25.0621516775,23.7608341675,22.3797191725,-4.21238183325,-11.919272585,-10.541760415,360.973399975,1046.334575
5,8.25,172.967227825,79.0066814175,-4.010892054,-0.0363348015,406.4425364,14.0375718825,2.35288301075,0.30991608,17.518631675,79.9684674975,96.69315649,18.99049141,24.9524975,23.713055,22.748754175,-3.11814375,-3.617157567,-8.69950175,433.467,1250.05604975
5,8.75,217.38300555,98.60973461,-4.3994511845,-0.0451243905,404.704046825,13.74545633,2.68523295825,0.3401305915,18.66037833,76.1659408325,96.694762495,19.21680354,24.9415958275,23.700417475,23.03909415,-0.917199326,7.52432092475,-6.3343469165,493.123375,1434.91375
5,9.25,254.5151611,91.771367295,-4.820422728,-0.0855328055,402.1248644,13.66192708,2.9604994525,0.4065765485,19.6919975025,72.2779824975,96.67537842,19.9345028,24.8274333225,23.7106949975,23.497014975,0.555628985,24.3815,-2.99832108325,546.12023335,1590.943917
5,9.75,269.256989775,110.9075684,-4.969100246,-0.09339064225,403.1513148,14.273060355,3.32695749375,0.4309594615,20.301225835,69.50437333,96.6887162025,20.868624505,24.7543108225,23.7173616675,24.237014175,1.89246902525,42.2475425,-0.1326946285,590.73706665,1717.1765
5,10.25,295.332598325,116.1046196,-4.6670532185,-0.1076695245,401.73256205,14.308506945,3.62886533925,0.50004326975,21.25897835,69.17866583,96.66726302,21.787978045,24.724794175,23.737506675,26.40847083,3.23171166675,62.02703417,2.99644958325,622.493774975,1813.5289165
5,10.75,319.409683225,122.2604101,-5.5041271405,-0.135636439,401.3549527,14.35316014,3.89832686625,0.52247465225,21.582386675,69.65285583,96.6540739975,21.7820550125,24.702989175,23.9002816925,29.478403325,5.6554685835,82.4447074975,6.8142885835,645.711,1893.906417
5,11.25,345.75229375,127.7898283,-5.092612469,-0.149886083,400.774931875,14.4186189825,4.06740911325,0.539303003,21.76704,66.6609924975,96.65908366,22.1808035,24.7459708225,24.2886116925,32.0507625,7.8844036665,97.5209508325,11.196143335,658.161433325,1955.857
5,11.75,349.6076249,132.57787,-5.4730979945,-0.165775561,400.102953975,14.210703135,4.04650356625,0.5257555315,21.7964391425,65.1180058325,96.6499245925,22.27210626,24.76125,24.70791585,34.771042525,13.695249165,104.86683335,15.5028824975,655.6162667,1976.56925
5,12.25,357.55762005,130.61369675,-5.327634048,-0.160086281,399.8408611,14.095862365,4.05305350025,0.5319828865,22.17425333,64.2736766675,96.63907805,22.2492090275,24.8692283,25.2620883225,37.6447925,16.8093508325,110.669433325,21.8108275025,643.716716675,1967.66074975
5,12.75,367.37685515,127.506669,-5.245187789,-0.172796608,399.8745139,14.8123591575,4.027018454,0.5211443515,22.38092085,64.3728150025,96.635090705,22.26413656,25.094098325,26.198195,40.11437333,37.299406665,111.41731665,34.98575667,615.479024975,1923.6366665
5,13.25,357.08618305,111.87402295,-5.4598664965,-0.1921100505,399.482125525,15.166969885,4.03993742475,0.51769286625,22.2138966725,62.441193335,96.6290422375,22.58697725,25.2644408275,27.3131242,42.31479083,56.690694165,111.07040835,52.449748335,586.50166665,1858.623
5,13.75,356.616399325,126.9137237,-5.18073291,-0.17635896,398.8299851,15.180662425,3.9661456045,0.524841744,22.5104166675,61.1897933325,96.61698141,22.39704024,25.5894433075,28.2143066725,43.6700699975,63.586391665,109.231375,66.818465,538.83325,1767.67016675
5,14.25,345.55773425,102.8877142,-4.9350680575,-0.17214507,399.1364835,14.733188165,3.95434488825,0.51421948525,22.385843325,62.072335,96.595815075,22.570155245,26.083959175,29.1466666725,44.0785358325,64.40690833,105.38896665,74.300013335,495.51339085,1646.91383325
5,14.75,326.347152575,93.88288038,-5.0790825425,-0.16862882025,398.85724995,14.81291331,3.88570128775,0.51906429225,22.142602475,63.159015,96.5760601725,21.691414105,26.541872475,30.0160416775,44.3108333325,63.940838335,98.96157417,78.176863335,425.67890835,1487.14096675
5,15.25,301.152572675,102.0108066,-4.17892523275,-0.146853142,399.0340964,14.9614849725,3.917685451,0.494460414,21.7349958,64.5640199975,96.56288876,20.9064699725,26.999375,30.76479167,43.35034667,59.611663335,90.5895600025,78.39256,352.3393167,1310.242333
5,15.75,272.220746225,83.01241088,-4.05855832825,-0.12559188,398.99730735,14.974018545,3.77334379025,0.48588677725,21.423928325,67.53609,96.559223785,20.6988301925,27.495000025,31.314375,41.7434050025,53.0267816675,78.24791333,74.67894833,277.24487085,1118.842942
5,16.25,222.963279075,58.78009583,-3.210558605,-0.127026278,399.1109081,14.33705019,3.64924255275,0.45275713375,20.72494835,67.4488074975,96.5587407575,20.55327053,27.803889175,31.521874975,39.9092375,46.014658335,64.042448335,70.096325,192.6927458,903.26865835
5,16.75,192.644376775,54.21125967,-2.9018882145,-0.1239060355,399.56099145,13.9474927025,3.45271340625,0.420818044,20.21173417,72.0056549975,96.5568347,20.531596255,28.1502083,31.688124975,38.252491665,36.934046665,49.684701665,61.3463333325,112.829464175,692.751300025
5,17.25,135.1527297,40.0523607775,-2.054918201,-0.1143737775,399.70580085,13.885082475,3.34261942425,0.38458579175,19.350672525,74.2259133325,96.5496873675,19.507247265,28.294791675,31.550000025,36.7836800025,28.0160124975,34.6584141675,48.2958649975,31.5957094675,475.4333333
5,17.75,77.7626171025,25.108043785,-0.1629473755,-0.0847930275,399.87936915,14.47374344,2.985829667,0.34902514725,18.0417958225,78.838475,96.5563585225,16.84734584,28.465208325,31.41,35.3095158225,18.6308325,21.33890175,34.9917658325,-12.690528335,263.299374975
5,18.25,28.999313735,10.409566595,0.988791238,-0.0507005705,399.2925742,13.78898503,2.79661711725,0.29905975625,16.5018674975,82.2230508325,96.5795672275,13.9022201025,28.60020835,31.171249975,33.9294441725,11.7626929175,3.6375813085,22.9890291675,-28.8827749975,91.9551925025
5,18.75,10.27451609,6.854945758,2.0079649935,-0.026510968,399.45888385,12.99178702,2.22074310075,0.2337343715,15.164795025,86.1054875,96.5991637475,16.0168279175,28.620416675,30.819725,32.5472241675,4.790910917,-10.5631949975,13.34820875,-34.0689050025,10.7284853675
5,19.25,5.3313655555,3.554650675,2.255559314,-0.0140110145,400.57703335,12.9146808975,2.013089387,0.19693391875,14.6054175,87.81231333,96.634983685,15.46623032,28.6127083,30.5095833275,31.1753449975,-0.99593717275,-19.698109165,4.0209526065,-32.6573399975,0.1486480315
5,19.75,5.353251364,1.65975536325,2.130689338,-0.01485753275,400.91062175,12.92862532,1.9229525605,0.22719618875,14.1143583275,89.0778925,96.653193225,14.071001805,28.593749975,30.11895835,29.941458325,-3.6834696665,-25.3998150025,-2.85885301075,-30.69382583,0.05992270325
5,20.25,9.62365368425,2.179142167,2.182845723,-0.0118792435,401.1999923,12.344837205,1.6583160225,0.189039031,14.025445825,90.15234333,96.681134855,14.398365395,28.4464583,29.74708335,29.0327083575,-5.0944954165,-29.244868335,-7.667671667,-26.9662858325,0.052970345
5,20.75,9.8914220035,1.859841572,2.21031404375,-0.0113169815,401.537068425,12.01893213,1.7016962875,0.18906832375,13.8323442,90.5405899975,96.695895125,13.672948105,28.298125,29.4154166425,28.0834024975,-6.465147667,-31.46935417,-10.783347,-25.5759366675,0.05561886825
5,21.25,7.066363673,4.161241978,2.49299516175,-0.0098607865,401.21957925,11.909617085,1.4850632725,0.17814241525,13.800175,91.4038108325,96.699086555,12.398394505,28.269374975,29.0385416425,27.3147900025,-7.30488325025,-31.4556324975,-12.7044333325,-26.8715391675,0.04934864325
5,21.75,7.028928181,4.942715705,2.20519753575,-0.009998197,400.75796295,12.10796042,1.55074220825,0.166687707,13.8301725025,91.781314165,96.6989415175,12.5919105975,28.075277475,28.7002083,26.7156258,-7.73461641675,-30.79992833,-13.91860417,-24.887310835,0.051977143
5,22.25,5.85962228825,2.661009049,2.316601681,-0.006620901,399.821281675,12.01743137,1.60038199725,0.154900835,13.798627475,91.654941665,96.707171345,12.9408306725,27.9126433,28.288333325,26.155695025,-7.768853583,-30.5591725,-15.0841566675,-22.6308141675,0.0556188535
5,22.75,6.11543849475,4.254086086,1.79226106,-0.008209475,401.15778985,12.398369725,1.6090079225,0.16129519525,13.7812199975,91.909315,96.7055905725,12.357221895,27.728542525,27.9277791775,25.5556250025,-7.8638194165,-30.7182975,-15.6522258325,-24.8852625,0.05064137475
5,23.25,6.119602449,3.4794291225,2.6040987445,-0.00931347525,402.0818253,12.6191744125,1.52151561625,0.1647993655,13.744139975,92.3596025,96.702222955,12.3713657425,27.680208325,27.659791665,24.9991641775,-8.1160623335,-30.254360835,-16.2582816675,-21.3154150025,0.04899756825
5,23.75,5.79227957125,6.2710377955,2.969780706,-0.0092482215,401.1883704,12.445745105,1.42741700375,0.16370187175,13.6200466775,91.8692675025,96.687647695,12.81237141,27.47,27.278958335,24.532569975,-8.428890667,-30.3476058325,-16.0841275025,-20.81686833,0.045024777
6,0.25,7.321453814,2.252307808,2.116502851,-0.00641709975,399.08890865,15.4705954225,1.13374655975,0.13997211475,16.398549165,93.6623041675,96.444561745,12.28455349,31.17763915,31.74375085,27.7156249975,-9.7052010825,-31.0486875025,-13.8955774975,-21.22391167,0.05230819675
6,0.75,8.01679866825,2.0663053975,2.6819943515,-0.0070938715,401.7362406,15.5258048075,1.186262826,0.1718679075,16.39562083,94.31719167,96.4359655925,14.20786162,31.006666675,31.383958325,27.1984725025,-9.90446400025,-30.52259833,-14.1098925025,-20.64069,0.05330136825
6,1.25,8.2006793235,7.0408992225,2.037880703,-0.00558529175,399.4339675,15.43268167,1.22929422875,0.178060474,16.909962525,95.4938525025,96.4257862625,11.9723494,30.738750025,31.029164175,26.7211091725,-10.0869309175,-29.5249449975,-14.37701,-18.770858335,0.04436862475
6,1.75,9.95080308425,5.26804377,2.90151383725,-0.0101332385,401.7857768,15.438417645,1.13700282925,0.1778254045,17.443616675,95.5317375,96.4037498625,12.16750687,30.6041667,30.63604,26.454305,-10.17844333,-28.784773335,-14.3120783325,-18.35698167,0.05094939675
6,2.25,9.53952397775,6.041323084,2.135143239,-0.01125148475,402.0222336,15.3054665175,1.166147073,0.17176822175,17.4535058275,96.54041583,96.39681771,13.1041996325,30.3954167,30.29083335,26.1714583,-10.05254767,-28.44412583,-14.2628258325,-17.295955,0.04634908475
6,2.75,9.482872162,5.450349819,2.26792833575,-0.013003879,402.01081,15.3998351875,1.14714624775,0.17952540975,16.7297225,97.041781665,96.3984268625,12.35175384,30.240416675,30.014374975,25.91111165,-9.50523299975,-28.610814165,-14.332526665,-17.4334041675,0.04899939175
6,3.25,9.16350541875,4.2417228545,0.975487536,-0.011103981,400.4696851,15.2620875025,1.15571415025,0.16571661475,16.613765,97.28351833,96.3929972975,15.06139766,29.993124975,29.683125025,25.6649291925,-9.556009333,-28.00282,-14.56029333,-17.143168335,0.04469372525
6,3.75,8.8211147795,4.080127053,2.170802066,-0.01166533575,402.8534398,15.24407975,1.197473987,0.19448332175,16.6797266675,97.385321665,96.39090523,13.5774142,29.912291675,29.403749975,25.3458983575,-9.64387908275,-27.30201833,-14.532448335,-16.48438833,0.04336945175
6,4.25,9.496193057,9.373993957,2.49126711425,-0.01202908875,401.9666142,15.0919827475,1.2588152995,0.17408446675,15.6563983075,97.416981665,96.401895825,15.8626029425,29.757499975,29.066875025,24.9338149975,-9.66417824975,-27.01038167,-14.451233335,-16.656854165,0.36648868675
6,4.75,8.6890951635,13.0532252125,2.11911984025,-0.009250201,399.8564723,14.8285258125,0.88700275275,0.1572987495,16.6099241675,97.4700875,96.4212793025,15.44565733,29.54770835,28.79270835,24.549096665,-9.737204083,-26.9053275,-14.504465,-15.0381517525,16.759490585
6,5.25,12.05938208,14.2381743,1.08640342725,-0.011223192,403.20472405,14.89704339,0.8639182075,0.15418928425,16.5430583075,97.5295833325,96.44463808,14.6625043275,29.40083335,28.474374975,24.4161083275,-9.695220333,-26.7415333325,-14.47589583,-6.17340283475,62.819860835
6,5.75,19.706242615,13.99168801,-0.1263394525,-0.01625881525,402.81890135,15.4591843125,0.99026843075,0.19130059425,16.4969958075,97.5877224975,96.4616312,10.351112555,29.186874975,28.21145835,24.281940825,-9.24586575,-26.2927699975,-14.2862808325,7.7257781585,131.269787525
6,6.25,44.6213473825,31.41667335,-1.258400294,-0.017186838,405.393405,16.53029525,1.11021668925,0.22404404775,18.297402525,97.2643966675,96.49171179,20.14650669,29.025833325,27.9462458,24.2809758275,-7.893024167,-23.6383025,-13.647361665,111.733109925,458.522574975
6,6.75,74.3179052,39.78406187,-1.70875922675,-0.0168981855,406.66436425,17.747464195,1.194552035,0.22971400275,20.1055891425,96.1222325025,96.5089606075,19.34345255,28.82770835,27.8012517,24.4277091425,-5.972990833,-20.427340835,-12.4390425025,199.692599975,666.9795917
6,7.25,128.2762245,49.73383941,-2.1481889835,-0.017955897,408.7627214,17.566729975,1.439382242,0.260968883,20.46236,92.89003,96.53045489,19.56615408,28.7733333,27.6075,24.6619467,-4.372767667,-16.58112,-11.27316333,285.9475,877.1493333
6,7.75,160.50709515,67.7287165,-2.996449724,-0.023498074,406.5435289,17.78508399,1.977007568,0.304726292,22.43139667,88.59173667,96.523022665,21.06695743,28.6025,27.48,25.18195,-3.243811667,-11.276084,-9.136352667,365.5585667,1076.023133
6,8.25,187.436878075,63.3297063225,-2.559993443,-0.05302093575,405.2002316,17.81870498,2.260210155,0.30974109975,24.8949858275,82.234609165,96.5344657375,22.069382385,29.221666675,28.0262499975,26.0081258,-1.51156059275,-3.1854445165,-6.82390775,434.215408325,1268.16599975
6,8.75,232.852333,78.5305529275,-3.284508721,-0.0888254595,403.7021368,17.74696589,2.80694467375,0.3931919255,26.0136408275,78.5494425,96.5247064075,24.61011348,29.2012499975,27.8512499975,26.728957475,-0.0973684825,7.75368693325,-3.97617574975,492.819408325,1444.59408325
6,9.25,268.7902918,83.9595265625,-2.897516747,-0.102028136,401.2090275,17.6933547475,3.500254985,0.435936518,25.89905333,76.24112,96.52523397,25.8510288325,29.44,28.01166667,26.9766667,1.632762723,19.79602667,-1.508845533,540.4996,1595.97
6,9.75,307.5748109,85.8376030425,-3.245647858,-0.131848454,400.9996203,18.2258022875,3.789749922,0.470033766,26.95357667,71.65457,96.54947268,25.0971520325,29.24166667,28.00944333,28.3,3.294702533,37.53814333,1.042582123,585.1524667,1740.420667
6,10.25,345.7844573,97.1528484875,-3.984880062,-0.158791588,400.3141756,18.3871564,3.996840596,0.501365692,27.28608333,70.13910667,96.56629529,29.09682543,29.21,28.00888667,31.50305,4.152473333,53.20579667,3.827511,620.2949,1845.228667
6,10.75,351.7649722,99.92199002,-4.165026326,-0.21617317,400.7343032,18.66430329,4.210780528,0.519939498,27.54799,68.28313,96.56512326,29.25884972,29.21,28.0275,35.37722333,5.724848,71.31678667,8.506167,644.0823667,1920.680333
6,11.25,371.2496019,98.41604711,-3.817966578,-0.186238514,400.1575048,19.05095889,4.298141405,0.54674081,27.87815,66.10681333,96.53980999,27.89888984,29.20916667,28.30583333,38.9908267,9.442385,84.59536,12.27053667,649.2690667,1971.831
6,11.75,412.5603837,109.38021945,-4.293115692,-0.215036892,400.5890539,19.00765673,4.48484998,0.561442131,27.80852,64.50288667,96.54505708,25.27212287,29.21,28.695,42.1647233,14.15995667,95.0215,15.51086,651.9285667,1989.357333
6,12.25,406.0811799,93.54218663,-3.907694443,-0.2055392545,400.9737868,18.65123295,4.23652706,0.53164687,27.88588,64.66547,96.51894711,27.0434747,29.2825,29.2325,45.0433333,18.14539667,104.6902667,18.99945667,637.7162667,1973.687667
6,12.75,417.3010464,91.60446043,-4.234714312,-0.217901172,400.4212323,18.72964451,4.126357627,0.540749338,28.41146,62.59609333,96.52447081,30.69880706,29.50083333,29.88583333,47.42444333,32.78395,106.3236,26.84781,615.7686333,1941.479333
6,13.25,413.9115191,96.52023275,-4.035559593,-0.206136415,399.7774938,18.58243096,4.036845509,0.537495949,28.80671,62.18697667,96.51412784,30.42268102,29.6025,30.66583333,49.3775033,51.47149333,107.9644333,40.09071667,582.3239,1883.165667
6,13.75,397.2571504,91.71932504,-4.132865013,-0.217281807,399.1001692,18.66411026,4.009627141,0.53095865,28.5046967,61.43057,96.49205185,29.40913122,29.97083333,31.50694333,50.98111333,61.09017667,106.8415333,53.41521667,536.2511333,1796.698667
6,14.25,385.9417526,88.345104005,-3.832196012,-0.200982046,398.5887737,18.58379959,4.019209789,0.529111936,28.207855,62.5669816675,96.47661978,29.84916542,29.4154166925,32.342639975,51.024162525,64.507466665,104.7894083,64.5580175,486.578066675,1676.8220835
6,14.75,348.8525719,81.01927862,-3.703699355,-0.191057262,398.7866375,18.73593718,3.997427062,0.512861946,27.9991967,62.55109667,96.45812514,30.19358449,30.45583333,33.1344433,51.3222167,64.33955667,100.56203,71.476140835,431.0019667,1532.835333
6,15.25,340.2932156,69.77920066,-3.819517651,-0.197240217,398.1708232,18.70590447,4.032782227,0.527951084,28.2455133,62.71018,96.44591378,29.56718631,30.72222333,33.97,50.1483367,63.2715883325,95.06582333,72.9159458325,364.399,1374.787333
6,15.75,310.3314412,68.99031445,-3.125630915,-0.192970788,397.2417746,18.77995074,3.953961944,0.516196317,27.3572767,64.26771,96.42254968,28.13257047,31.13360667,34.6850033,48.43639,59.3918249975,85.94673333,72.6808283325,286.4732667,1194.273
6,16.25,265.6779386,60.89051604,-3.151822805,-0.15689084,397.4544308,19.03234643,3.885476268,0.502784307,26.3624633,65.70428,96.40613082,28.55738742,31.39166667,35.10000333,46.81389,53.60735583,75.17352,70.55984667,211.4445,997.2582333
6,16.75,231.8287734,42.14840499,-2.536945364,-0.147475703,397.8861564,19.20287264,3.875740628,0.479165962,26.03024,68.21542,96.37681868,27.09835431,31.615,35.45110333,44.93222333,46.46803,62.81131667,65.96584333,127.96832,786.4521667
6,17.25,172.2668692,34.08811859,-1.938792641,-0.139008604,397.5715887,19.0669704325,3.79531719,0.438170579,24.7455633,72.04328667,96.38825771,23.3982584725,31.90666333,35.69111667,43.09666667,37.99232333,52.26900333,60.03155,54.41803667,569.4551333
6,17.75,124.0630947,23.7529869225,-1.371215142,-0.118210752,397.8572284,18.7415028,3.463847289,0.419409391,23.7953067,76.28391333,96.38758204,19.5536701,32.10972333,35.70777667,41.44750333,29.10961,38.07017333,53.38148333,-11.35690187,364.5208333
6,18.25,63.67139984,9.53342653,-0.438981812,-0.077041639,397.1519676,18.27632163,3.299474036,0.36031402,23.2095741925,79.3717975025,96.38985249,13.45115351,32.2047916675,35.6958375025,40.074023335,19.77935333,23.88797917,44.7083300025,-58.489558335,170.716119975
6,18.75,22.84246949,4.574147629,1.242462187,-0.042429982,396.165166,16.41804445,2.613955947,0.288212249,21.63795,85.65267667,96.39996995,16.61734678,32.35583333,35.53222333,38.29861333,9.972771667,6.2626743,34.62069,-75.47347,35.043862
6,19.25,6.886400188,-0.415649376,2.10388135,-0.015720446,397.2387436,16.20773881,2.003465723,0.233069155,21.04652,88.30286333,96.41532157,16.98246589,32.42,35.31333,36.83445333,0.844427033,-7.452952,22.77426333,-77.27048667,1.5281951
6,19.75,8.676935349,-0.282779547,2.692965516,-0.01276291,396.6350462,16.13607017,1.873961523,0.21307077,19.64166,91.27183333,96.43571835,11.15231393,32.4425,35.10778,35.49778333,-4.878837333,-17.04497,11.816187,-56.79457333,0.079455527
6,20.25,12.23083039,0.749191148,2.1493524535,-0.014811526,398.6756556,15.93863266,1.502638526,0.199440476,19.45462667,92.11518333,96.46286192,11.18245572,32.46,34.89416667,34.35666667,-9.376228667,-24.15087,4.251817667,-38.20397667,0.07415846
6,20.75,13.17432566,0.519294541,2.334917605,-0.007595592,399.4549557,16.00973651,1.249175191,0.153031519,18.77675333,91.72204333,96.48519296,11.67012475,32.43083333,34.59083333,33.28,-10.64484333,-27.27059333,-1.596658067,-33.06905,0.063564453
6,21.25,9.051826227,1.266899053,2.471120441,-0.005948131,399.9077806,15.7410268,1.274160931,0.15268445,18.48661,91.62871,96.48550528,10.93656358,32.405,34.22555333,32.12055667,-10.74865333,-29.15412,-5.987628333,-30.92804667,0.0649
6,21.75,12.35470256,1.659231645,2.028488316,-0.00631398,400.0126656,15.56809432,0.995885694,0.148864117,18.42054,91.45143,96.47994403,11.53783236,32.26333333,33.82777667,31.07611,-10.77013333,-30.65093333,-9.186844,-30.70068,0.059591633
6,22.25,11.20432908,-0.781394591,1.652985405,-0.006681114,401.0793889,15.59659422,1.103567612,0.147161265,17.52559333,92.08784,96.46333914,11.1106789,32.12305667,33.40222,30.27166667,-10.82421,-31.70399,-10.31313833,-27.84393,0.060915893
6,22.75,5.192322871,1.243133631,1.52469333475,-0.007573177,400.3548818,15.43687549,1.122106083,0.151630032,17.13195333,93.41477333,96.46002696,11.84406605,32.10778,33.02277667,29.66416667,-10.79152333,-31.29653333,-11.59195,-32.46125333,0.05826738
6,23.25,10.15095408,0.793711487,2.257555607,-0.006184114,400.307923525,15.77038057,0.911694914,0.11941541,16.59639667,92.66481333,96.44827651,11.47604035,32.08889333,32.66083,29.01916667,-10.75125667,-30.45817667,-12.22762667,-29.87218667,0.064888667
6,23.75,4.688553031,0.54094093225,1.4744545445,-0.007228011,400.6416512,15.64478293,0.841361792,0.132124033,16.32319667,93.34328667,96.45876464,11.29114686,31.78333333,32.29666667,28.47916667,-10.58220333,-30.63677667,-13.23500667,-25.64009333,0.0503
7,0.25,1.4661004505,2.811220695,1.5394416945,-0.006534711,390.3986699,17.4813329625,0.93465907125,0.130557871,21.348696665,91.4537099975,96.63198734,9.047863975,33.4093750025,34.33611167,30.9197924975,-8.1265786665,-31.923926665,-14.1077066675,-50.1305450025,0.0569431365
7,0.75,0.70507543225,4.5654014265,1.39867335475,-0.006204949,390.8119347,17.2086591675,0.9774704485,0.12362933625,21.63655583,92.7597833325,96.62550121,10.0826913425,33.40208333,33.9830524975,30.517291665,-8.2939209165,-32.10900917,-14.65674583,-48.6412474975,0.059591623
7,1.25,0.45950895575,12.3099301475,1.474039867,-0.00863164475,391.3088466,17.5458166775,0.8605026155,0.1413779335,21.5194699975,93.59955667,96.61347105,10.4153931175,33.1835416675,33.586385,29.98291667,-8.40635758325,-31.9737399975,-15.19276417,-47.914718335,0.052970365
7,1.75,2.41631277925,4.3947997155,1.60997203375,-0.0087108095,392.792990725,17.7062995025,1.0401862165,0.1585588615,21.618351665,94.3522800025,96.60955574,10.7442613875,33.1049999975,33.325416665,29.7325000025,-8.5969396665,-31.78199417,-15.4479041675,-43.942630835,0.0556188165
7,2.25,2.00014592475,3.40597678,1.854708461,-0.00681921725,393.815553225,17.859577085,1.03016046875,0.1428518005,21.50267583,94.6205283325,96.5920319775,10.2315324325,32.8102741675,33.01721917,29.405625,-8.32304016675,-31.791985835,-15.33261917,-35.0987508325,0.05462566675
7,2.75,2.17426440125,5.980297601,1.637237086,-0.00701027125,391.7497969,17.4962515925,0.98765250025,0.15063975325,21.1327149975,95.295224165,96.5744327275,10.2218781475,32.7,32.712220835,29.0399999975,-7.8803300835,-31.54749833,-15.3919316675,-37.6861225025,0.053301388
7,3.25,2.9177062195,7.36134007475,1.547272441,-0.007255885,392.61983085,17.434597395,0.94637824025,0.1493139185,21.065475,94.9197049975,96.5718462475,10.3699019,32.67770833,32.448333335,28.6993749975,-7.77385824975,-31.572889165,-15.9678500025,-38.20252917,0.05594993675
7,3.75,3.9742112005,7.13339601125,1.15838953975,-0.0073546355,393.900213175,17.2376430875,0.857489509,0.15467026125,20.8977499975,95.0067125025,96.5798332875,10.35187044,32.57291667,32.1612499975,28.32708333,-7.8512376665,-31.28578417,-16.178318335,-31.9060791675,0.0556188615
7,4.25,3.3730873625,5.75198440425,2.0162377375,-0.0075264695,393.39970005,17.355782465,0.9478805565,0.16193670625,21.06436417,93.6179558325,96.5988096775,11.050257325,32.357708335,31.9888900025,28.0197925,-7.825058583,-30.3575500025,-16.00785917,-30.302981665,0.0979951615
7,4.75,2.89106869975,5.72972894525,1.518505374,-0.00903716525,392.8382946,17.325761725,0.9514314265,0.139397124,21.05484,93.82078917,96.618832325,11.28003303,32.12395833,31.6759025025,27.7057641675,-7.97820700025,-30.2121350025,-15.851416665,-37.046298335,6.386236325
7,5.25,7.151361195,9.215982674,1.3801087585,-0.007926573,393.172023375,17.313231845,0.9020280145,0.1580735485,21.59939417,94.118751665,96.6285802525,11.5667443475,32.1069475,31.4268750025,27.477916665,-8.0661330835,-29.9908775025,-15.88383167,-18.8930704225,47.60743333
7,5.75,14.1982272925,14.30921182,1.01840863975,-0.01249275875,392.07112495,18.303644615,0.91125259925,0.15512012275,21.4230991675,94.8746025025,96.639493235,10.7934231425,31.987500835,31.2389583325,27.1020833325,-8.062542917,-28.91402667,-15.5976191675,-6.502134817,104.519099975
7,6.25,44.8487688,33.38634615,-0.3935714845,-0.014776436,391.5356665,19.835808175,0.853057404,0.206900341,22.792458335,94.18401833,96.68030923,14.14573915,31.71458167,31.04625167,27.156666665,-7.6140358335,-27.000411665,-14.964068335,70.8805885,357.27783335
7,6.75,89.8498501,38.06662826,-0.851878831,-0.0235700705,395.9797875,22.22272008,1.121845189,0.2181095125,23.981063335,89.421765,96.69086374,17.596726625,31.63708333,30.778468335,27.38166667,-6.672693167,-23.80273,-14.127676665,171.16090665,608.6439167
7,7.25,111.64164835,44.7533948525,-1.67878499575,-0.03240470175,396.60295055,22.429909425,1.6173646495,0.25578729675,24.6742375025,82.37002583,96.698029995,17.1646171125,31.4206249975,30.564375,27.54071121,-5.22253875,-18.8907316675,-12.7685500025,255.1251417,833.015433325
7,7.75,152.936169125,42.2589432725,-1.860488188,-0.04205718325,397.333481825,22.4774461675,1.94546635325,0.28925066625,25.1368575025,74.9881099975,96.703281245,18.66628283,31.39854167,30.39625,27.8309725,-3.993358917,-12.9117445,-11.097209915,331.65345835,1045.01567525
7,8.25,197.3330766,46.8181479925,-1.956184687,-0.0716421535,397.199730225,21.94694923,2.627227093,0.337272097,26.60301417,67.7311091675,96.7000227825,21.8499843125,31.39729167,30.2354166675,28.6225,-2.510380333,-5.51443195,-8.691832333,400.432000025,1249.80875
7,8.75,236.860065,56.9852505425,-2.10144171575,-0.11393921575,396.38395705,22.1223366325,2.84807789675,0.38534883825,27.7474791675,63.135680835,96.683379175,24.013635365,31.2593749975,30.1368749975,29.465416665,-1.19907005225,3.99217230175,-5.601560917,459.430449975,1431.1780835
7,9.25,277.169843975,61.52625441,-1.922881918,-0.13121352225,393.459821425,21.94591443,3.3096824155,0.427750449,28.145214165,58.86729083,96.682746585,23.1028957325,31.127083335,30.12020833,30.1025000025,1.45886161675,16.0633141675,-2.7129810835,513.3953917,1598.02491675
7,9.75,304.41746825,64.9633596175,-2.2789632895,-0.160372757,393.563155125,21.66057394,3.63435277825,0.4780946145,28.13259583,55.51499667,96.6777755325,24.797449935,31.11,30.1125000025,31.1856933325,2.18248225,33.0286058325,-0.174018627,557.76266665,1735.121083
7,10.25,338.22085025,71.6033377,-2.49315785475,-0.19868933025,392.94953385,21.698389715,3.88375267075,0.51729938025,28.5835175,55.299308335,96.66404955,25.948627055,31.0597275,30.1124999975,33.1434075,3.5057804165,49.9581199975,2.849048667,592.878833325,1850.13275
7,10.75,362.6080763,67.871077195,-2.483309423,-0.225910112,392.5893773,21.781624445,4.111761535,0.534993722,29.04503667,52.00718667,96.66515417,24.9557937675,30.87110333,30.1275,36.29389,5.544359667,63.51624,5.563743,613.9999333,1930.034
7,11.25,400.7471728,64.3029863,-2.534032779,-0.250802357,391.1912739,21.42830583,4.137536871,0.55474912,29.55375333,52.06147667,96.6621622,27.665450475,30.78555,30.365,39.39722667,9.532406,74.74002667,9.208251,627.1667,1986.803667
7,11.75,439.1540803,67.70506368,-2.719062467,-0.272275734,391.2286964,21.57921996,4.104094594,0.568625538,29.92052333,51.97952,96.6553869,29.22571259,30.76778,30.67,42.57361333,15.81806,83.80388667,13.18419,631.7304333,2008.545333
7,12.25,446.3478473,77.071722185,-2.702052397,-0.278473055,390.2994369,21.57435899,4.165274455,0.582439076,30.17865,51.23984,96.64238547,29.98495976,30.85333333,31.20028,45.50333,20.21501667,91.13842,17.21410333,625.0968333,2004.082333
7,12.75,448.8525315,67.73871784,-3.157275119,-0.294909684,389.7561565,21.69987748,4.220919368,0.595026418,30.66773,52.11836333,96.61907859,32.17225292,31.09444667,31.75361333,48.03083667,34.24537667,94.48451,24.80503333,603.5541,1963.374667
7,13.25,447.4382589,69.376564435,-2.94073014,-0.2716510835,389.4439761,21.44007461,4.237561159,0.595647689,30.64332667,50.72074,96.62111059,32.09186919,31.16583333,32.47888667,50.14528667,52.55205,97.00046667,36.46318667,572.8025,1899.111
7,13.75,437.2849828,61.2912569125,-2.385359625,-0.275315073,390.122742,21.57288226,4.173974508,0.574995761,30.75453333,49.15036,96.60437725,33.78553707,31.385,33.27583333,51.74555333,60.15155333,96.65111333,48.58655667,532.3941667,1809.494333
7,14.25,434.4984954,56.0779237375,-2.609403579,-0.269251818,390.0831593,20.97104327,4.099565166,0.559832598,30.85676,49.83870333,96.5958223,32.34075876,31.50416667,34.06666667,52.56555333,60.39807667,94.75464,56.78952333,483.1082333,1689.120333
7,14.75,399.3941225,61.52945036,-2.425747067,-0.271754857,389.7551832,21.01333398,4.031420903,0.557899234,30.45154333,50.12933667,96.57956368,31.00632988,31.84333,34.85194333,52.938888335,59.5239,91.12037667,61.14309,423.5644333,1547.269
7,15.25,362.5944889,55.8830408775,-2.29640751,-0.237995721,390.0712028,20.94218135,4.042063507,0.550458556,30.21004333,49.44734667,96.56270081,28.83709838,32.12139,35.52666667,52.501665,56.8754,84.37017667,63.53998,356.5872667,1379.036
7,15.75,342.9134302,49.53139462,-2.204199902,-0.241632932,390.2076268,20.8462208,4.002458318,0.526151708,29.63145333,50.86457667,96.5541313,28.0206506275,32.49666667,36.26555667,50.95,52.82752667,74.96984333,63.35887,287.6135667,1195.023
7,16.25,288.6418978,42.158549955,-2.116177754,-0.218033803,391.049516,21.30356081,3.915234814,0.515348815,29.24334667,52.23834667,96.53575678,26.59552666,32.69333333,36.76999333,49.22223,47.20298667,64.99339,61.14319333,210.074,993.4375667
7,16.75,241.6494454,30.75482646,-1.60579571,-0.194873135,390.7645532,21.58994419,3.771944792,0.477883055,28.29198667,54.56938,96.51828296,25.00879087,32.96055667,37.36000333,47.38112,38.61747,54.60990333,57.59608667,133.39545,781.6623667
7,17.25,190.6436033,24.9143988,-1.282357374,-0.165525374,390.4354554,21.72833333,3.549557051,0.440652097,27.71883,56.76732667,96.52081382,23.93326562,33.24166667,37.55444333,46.03805333,29.95585333,43.37941333,52.51021,57.90032333,567.3311333
7,17.75,136.637054,18.39476504,-0.922210959,-0.141049022,389.7170533,21.33479558,3.437207441,0.423469301,26.73743,61.92029667,96.51274038,21.5766989,33.40916667,37.80223,44.48861,21.66265667,32.25710333,44.85382333,-7.671213033,360.8711667
7,18.25,74.36378584,10.60443454,-0.195804123,-0.10736762,388.7525843,20.2961106,3.263792421,0.393232683,25.47030333,66.85295333,96.52004387,19.69765569,33.45332667,37.81,42.87222,15.31277333,19.68668667,36.11679,-50.61050667,170.6294567
7,18.75,24.2121544,1.553302927,0.806924947,-0.061879252,388.1478105,18.98744774,2.911975195,0.321658625,24.57418667,73.29119333,96.52756349,14.26586669,33.77666667,37.77333,41.53360667,10.61317433,4.89044308,27.37806667,-72.52845333,35.772216
7,19.25,1.605451538,-0.187025463,1.369810974,-0.041225042,388.7450169,18.97006373,2.311263409,0.274793874,22.77243333,79.34593333,96.55727194,10.84393255,33.81111,37.50443333,40.02417333,5.915513333,-6.734423333,17.11723333,-75.30075667,1.562625427
7,19.75,0.947447768,-1.848793405,1.727251062,-0.018198962,388.299178,18.8311758,1.978707876,0.216820859,23.57049,83.14826667,96.59357209,11.84348181,33.87444,37.41,38.58055667,2.105243633,-14.9394,8.762228,-70.12746,0.079455507
7,20.25,1.555291744,-0.93578315,1.852738033,-0.014082247,386.7033228,18.74793849,1.475135588,0.175472967,22.46183667,85.62058333,96.61305809,10.28012391,34.08111,37.15444,37.38777333,-0.416389697,-20.18523,2.695850467,-66.86153,0.071509987
7,20.75,-0.155072795,-0.448881569,1.99970761925,-0.009653565,389.0808652,18.75989824,1.011074872,0.163908116,22.36459667,87.45541333,96.63140093,10.2152018,34.14666667,36.81111,36.26889,-2.338318,-23.84962,-1.927144033,-65.22327,0.063564393
7,21.25,-0.525334248,1.767410983,1.90660287,-0.008277006,388.1378228,18.52642935,0.909603752,0.127673504,22.37521667,88.10783,96.65084891,10.1314587,34.16001,36.51111,35.17971667,-3.896556333,-26.22423333,-5.201316,-63.94961333,0.062240153
7,21.75,-2.294741216,3.550961478,1.55881246075,-0.006686261,388.9435074,18.43881068,0.929205088,0.121323377,22.4558,88.94231,96.65977784,10.441879,34.06111333,36.18333333,34.37860667,-5.306534667,-28.58501667,-8.035790667,-60.48699667,0.06224014
7,22.25,-0.05111818,1.471419357,1.606637909,-0.005925877,389.2440931,18.25299669,0.961984366,0.12054277,21.84312667,88.70079333,96.66384794,9.38734153,33.87888333,35.79889667,33.60833333,-6.395006,-30.04218667,-10.06329333,-58.75808,0.060915927
7,22.75,-0.37532775,3.598545632,1.84600771,-0.006584747,390.0988618,17.98593935,1.024134809,0.128499049,21.77805333,89.41977333,96.66681595,9.03449976,33.81,35.40222,32.83055667,-7.295750333,-31.06518,-11.43762667,-56.49284333,0.058267393
7,23.25,-1.679731568,1.203117897,2.0334957755,-0.005447607,390.2342042,17.69817586,1.125232169,0.154915991,22.04058,90.41802667,96.65237957,10.04313468,33.79111333,35.04666667,32.25305333,-7.609003667,-31.74223667,-12.65214333,-53.24849,0.062240113
7,23.75,1.963321442,5.223496244,1.41771095725,-0.005904861,390.35266095,17.66502869,1.010591097,0.145399705,21.99184333,90.30450667,96.65325773,8.64495746,33.49333333,34.74,31.54166333,-7.935601333,-31.70214667,-13.08393333,-53.75939,0.05959166
8,0.25,2.413128194,4.126307714,1.2481306025,-0.0078273065,392.171003,18.587919425,0.93624955625,0.1349907985,19.493049165,91.60600583,96.5787419825,5.0271364275,33.8402749975,34.2066675025,29.8731250025,-7.54465599975,-33.5712483325,-15.4271074975,-34.07022417,0.054294585
8,0.75,2.364812356,3.576500084,1.2279625595,-0.0061430605,391.735807225,18.4322025125,0.8884276925,0.144615337,19.6045241675,92.033359165,96.5619462625,5.617830405,33.79167083,33.8216683325,29.74916667,-7.4238514165,-32.2597433325,-15.8841983325,-29.8937791675,0.05429461475
8,1.25,5.520758188,2.521645582,1.1427429435,-0.0070514195,391.957813675,18.4782878275,0.85515352575,0.13948842325,19.866873335,92.3428799975,96.544109895,5.555140345,33.484715,33.4513883325,29.4093749975,-7.454638917,-31.04852833,-15.7047808325,-36.0868583325,0.05561883525
8,1.75,7.2492524725,2.2288284145,1.07287283575,-0.007415545,391.8813938,18.36891853,0.89450488475,0.13492609925,19.3908891675,92.509198335,96.539589715,5.4019278425,33.4087499975,33.2300000025,29.1806249975,-7.1933228335,-30.876900835,-15.6827749975,-29.8023825025,0.050321833
8,2.25,6.67764476575,4.7216815245,1.1440253365,-0.00552507675,392.09093135,18.4860896175,0.84875007925,0.15059761775,18.80934583,92.945460835,96.5311423375,5.0670371575,33.4025,32.90721833,28.768958335,-7.2519289165,-29.86929667,-15.500270835,-21.99626833,0.055949922
8,2.75,8.21646986625,1.098717958,0.9011877395,-0.008172154,391.94794135,18.5514306875,0.95202447525,0.14293357,18.6934016675,93.0797849975,96.5279236525,4.58251149,33.1883333325,32.7068750025,28.4274999975,-7.36563875025,-29.27799417,-15.6567850025,-22.299924165,0.052970352
8,3.25,7.9968743405,2.5755073,1.209162924,-0.006508025,392.53746455,18.73508802,0.9632147445,0.143890355,18.750570835,93.697840835,96.5309415725,4.2643258925,33.1091675,32.458541665,28.1856249975,-7.29761641675,-28.9300816675,-15.6890375,-21.4612516675,0.04833543525
8,3.75,8.879515908,4.6740469,1.395917739,-0.01020122925,392.3772863,18.601856845,0.87826333675,0.152092742,18.56474833,94.32925,96.5354804825,5.1386305325,32.854225,32.23770833,28.00333,-7.41084591675,-28.61030417,-15.6265824975,-21.00827833,0.05065289525
8,4.25,10.778159165,6.138341485,1.42347217825,-0.007324667,392.5836277,18.59944146,0.9338591345,0.175438099,18.293639165,94.899861665,96.5365644,5.204358725,32.6954858325,32.1085433325,27.727225,-7.42563175,-28.514515835,-15.61283167,-19.7473291675,0.04634902675
8,4.75,8.442714754,3.479761296,1.318005863,-0.009143143,392.856088725,18.5944049775,0.92020249475,0.152095789,18.26294417,94.9952075025,96.54838271,5.5163407225,32.684166665,31.804165,27.600416665,-7.49416249975,-27.82153583,-15.59304583,-20.807033335,0.6402789485
8,5.25,7.7639899925,5.716186198,0.897424804,-0.012107588,393.299687,18.700107725,0.90616096875,0.1649061265,18.4904091675,95.28897917,96.576610395,5.848073365,32.6739583325,31.63395833,27.2775000025,-7.54841775,-27.6283708325,-15.54807917,-17.4900091675,19.10077592
8,5.75,12.8377094175,10.548035815,0.797672086,-0.010269521,393.711015775,19.05245443,0.9093905825,0.18123923725,18.24543583,95.39811583,96.5985216725,4.5829610775,32.5179166675,31.4154166675,26.9679158325,-7.410054,-27.163598335,-15.4863975025,-4.55602460825,73.4046749975
8,6.25,26.795007485,19.6306632375,0.245934054,-0.0166951105,394.45159475,19.89079551,0.8839176,0.187709311,18.8775299975,94.5243025025,96.616496455,5.1552055375,32.377083335,31.2668750025,26.850625,-7.052075,-25.7293433325,-15.06100083,35.5207819975,238.71849335
8,6.75,75.056703265,27.47005673,-0.4019188415,-0.01725134625,397.8549181,22.4768833425,0.87153802675,0.2276388105,20.6082925,93.0308183325,96.6518880375,8.53318277,32.1458333325,31.0808325,26.8727775025,-6.52771474975,-23.53525167,-14.32193667,130.958404175,501.967983325
8,7.25,107.33105725,36.02967538,-0.5962277125,-0.02822321425,398.6769684,23.3035504575,1.22919449475,0.237166991,22.41541833,89.0783824975,96.66286205,12.767336045,32.1069475,30.79555667,27.05458333,-5.70932641675,-20.3160499975,-13.206405,227.7628333,735.517475
8,7.75,147.673756275,37.172651895,-0.9434355195,-0.03455933325,398.0016897,23.12840546,1.68565107275,0.2836942815,23.9439233325,83.0251958325,96.6696911725,15.81746846,32.1027799975,30.6849983325,27.39333333,-4.675278083,-16.04019,-11.7585233325,307.45046665,953.4567833
8,8.25,197.65712975,39.5312597825,-1.0795454985,-0.05159511725,398.04224865,22.87224918,2.31035812025,0.34729228675,25.0592283325,73.484461665,96.6782849475,18.0342176575,31.96444833,30.4918750025,27.849374165,-3.5450786665,-10.6266763325,-9.87862333325,376.651216675,1176.1609835
8,8.75,217.86820825,40.421941805,-1.249466804,-0.0795031845,397.43616995,22.3919458375,2.5694657825,0.347112245,26.667935,67.275011665,96.66831394,20.43067317,31.719443335,30.50291667,28.3575,-2.577555167,-2.4199917985,-7.586131667,440.9645167,1367.433833
8,9.25,259.86778365,40.9295275925,-1.470160319,-0.1101356075,396.0673266,21.292821615,2.8921988195,0.3983830295,27.783826665,62.390175,96.66679008,22.142277875,31.703333335,30.40375,28.767083335,-1.5915981335,9.3628431665,-5.161731167,491.99985,1543.3033335
8,9.75,296.399811125,41.21074987,-1.361475905,-0.1603884135,395.543858925,21.4886795025,3.34979776775,0.46045228375,28.3877175025,59.0250991675,96.6630133925,23.0924584425,31.547083335,30.3102083325,29.36375,-0.40239499475,25.38423417,-2.13434205025,539.19745835,1690.47066675
8,10.25,342.846281625,50.890482245,-1.73577671675,-0.19127695725,395.183537075,21.398859255,3.7561267795,0.50603858875,28.475405835,56.2298999975,96.655112215,24.16071731,31.45416667,30.318125,30.9943025,1.19474494825,42.21698417,1.034860329,574.182725,1809.5858335
8,10.75,386.46626305,46.003014745,-1.8932933675,-0.254389168,394.855780675,21.48904644,3.93130608525,0.5338377305,28.988086665,54.726894165,96.636142745,25.13991902,31.4068749975,30.4083333325,33.1418049975,3.57349141675,57.2528883325,5.35306558325,601.8543417,1895.565667
8,11.25,415.04022445,47.23889549,-2.154789157,-0.2832491975,394.60667925,21.79256781,4.1279134315,0.5644989445,29.204188335,53.41249333,96.61734694,26.064777155,31.40041667,30.545833335,36.13556167,6.7879298335,70.235315,10.44991617,617.4773,1950.9215
8,11.75,437.157140125,46.1717186,-2.1475349745,-0.2923215745,394.03163185,21.8591457325,4.07291284075,0.5700695815,29.4809124975,52.668069165,96.596093065,27.553630885,31.40208333,30.75971833,39.41867833,18.057755835,78.841568335,14.9079874975,621.633075025,1969.191083
8,12.25,433.4008451,41.28386576,-2.25470292125,-0.305713855,393.51304005,21.8984286925,4.27857771425,0.586769262,29.74728,52.8132883325,96.572571,27.480440725,31.39333333,31.2139600025,42.426389165,30.1785141675,85.518785835,21.836309165,608.260550025,1963.44174975
8,12.75,441.644231,39.04366595,-2.301790538,-0.302600376,393.1946762,21.7581437025,4.11473531225,0.58082983425,29.8657408325,52.5872541675,96.5597695125,27.43234586,31.40291667,31.69750167,45.1576375025,47.078678335,88.379698335,31.296290835,589.83755,1920.891833
8,13.25,440.40518785,37.90865181,-2.078864936,-0.2777272515,392.4450713,21.71617784,4.034850584,0.58407995025,30.500036665,51.6183950025,96.5386034925,29.32234127,31.46083333,32.3641666675,47.43507333,59.96634167,91.28547833,41.11857333,558.4605583,1859.040333
8,13.75,431.93541245,34.258155535,-2.2222196355,-0.28681954925,392.622584825,21.532608535,4.053980586,0.56652059925,30.5739700025,50.61912417,96.5159223525,30.4121423275,31.658333335,33.048331665,49.19645667,65.551500835,91.9955724975,50.1367199975,512.902283325,1757.12025025
8,14.25,420.15678505,34.6634645625,-2.1405469955,-0.279128554,393.20899155,21.71295243,4.1517474595,0.5622218205,30.3891049975,51.51606083,96.5025847425,30.242324145,31.9394475025,33.8433349975,50.6183333325,66.0366491675,89.8957725025,56.930910835,461.84398335,1632.87741675
8,14.75,405.3290703,32.0008549975,-1.79441438375,-0.2880418435,392.47713045,21.5512260125,4.06693779025,0.562252766,29.83531833,51.608881665,96.4974917825,29.0448366675,32.135209165,34.6299325025,51.694995835,64.70704,85.4681825,60.778571665,398.780833325,1477.4329165
8,15.25,360.37888785,28.86554342,-1.62356627875,-0.26119175625,392.284546825,21.6859995775,4.10460039175,0.551145048,29.3247450025,52.644185835,96.4796958175,26.1608894725,32.509375,35.2494358325,51.1572175025,60.5293424975,78.5940591675,62.407401665,328.4119333,1301.59750025
8,15.75,332.914171625,24.2494321675,-1.6367446825,-0.24502961475,392.3869525,21.4365896075,3.9939921285,0.543105873,28.5988583325,54.60615917,96.459967285,25.0815621075,32.68986083,35.8705550025,50.1230558325,54.8530700025,69.884345,61.2884300025,258.034283325,1109.0970835
8,16.25,284.73031955,18.671308275,-1.3632266155,-0.225497329,392.5407597,21.527149335,3.990216317,0.522161107,27.9947766675,56.28888,96.4392007875,23.039289545,33.0088866675,36.4083325,48.24215333,47.74346333,59.8215849975,58.87288417,185.5302167,887.771908325
8,16.75,231.07066405,13.0718138625,-1.202291753,-0.209751601,393.4099871,22.276516745,3.8805414565,0.5045271955,27.3303999975,59.443511665,96.43888725,21.8650963025,33.3108333325,36.7436091675,46.2454841675,39.7881324975,48.9171866675,54.1076066675,103.66458415,673.0472583
8,17.25,167.8452532,12.3962232075,-0.896185066,-0.1810594345,393.470443925,22.5503404175,3.73930675275,0.46192128325,26.6140574975,62.4165549975,96.43458361,19.42418942,33.431384165,36.9825666675,44.641665835,29.136211665,36.8972700025,44.0460474975,34.67371633,460.981850025
8,17.75,107.5123923,7.4343854395,-0.3283171455,-0.14774455975,392.1524564,22.027208965,3.55715585875,0.4318612305,25.57326333,66.51135417,96.434322315,15.8723129175,33.7722225,37.3422924975,42.918334165,18.814855,25.122803335,32.64003417,-25.3161620675,257.325000025
8,18.25,51.36843975,1.86017239075,0.50651668875,-0.08817428875,390.30120285,20.715049935,3.30470299425,0.383145165,24.04451417,72.8600949975,96.44233509,11.68358623,33.9947208325,37.41,41.367645835,10.6474494175,11.4294332525,22.5697950025,-66.98576333,88.72101667
8,18.75,8.1084662685,-5.1181481045,1.18589412925,-0.05380487575,389.32807015,19.22706579,2.76155119475,0.320490114,22.47323667,79.3035608325,96.46643774,8.9613215075,34.190566665,37.3797875025,39.739375835,6.760251,-1.43401028325,14.32003667,-78.8217891675,8.694419325
8,19.25,2.220118671,-6.05760769525,1.26305765875,-0.027740191,389.09938955,19.27343759,2.2147247185,0.26400084625,21.70012917,83.212489165,96.5007654875,7.3212285,34.2025075,36.9905566675,38.29166417,2.76593108325,-13.2792938325,6.926294583,-76.2395691675,0.119183255
8,19.75,-0.3003238935,-4.41452963975,1.351130285,-0.020922583,389.6787952,19.3773696,1.825478779,0.2148100315,21.2117874975,86.05232417,96.534825065,6.2471427275,34.2147216675,36.8855575,36.88729083,-0.3819821455,-20.3552150025,0.9606463715,-73.59594833,0.0662128885
8,20.25,-0.91110998775,-1.26948227275,1.52223192675,-0.01237376175,389.5444185,19.3369058975,1.5779059295,0.1873407545,20.89095583,87.5152924975,96.56602874,5.49674422,34.2352775,36.5480525025,35.642225,-2.50679033325,-25.0526233325,-3.21780049975,-70.84474833,0.058267407
8,20.75,-1.9538895995,2.06361613,1.3761276235,-0.008231278,389.7205533,19.2363839875,1.35164933125,0.15511547775,20.006335,88.7324266675,96.58707544,4.854830515,34.239166665,36.43361,34.66639333,-4.15996525,-28.0969299975,-6.51722083325,-69.0850258325,0.059591645
8,21.25,-0.52568592875,-1.04938720375,1.593050045,-0.0058906505,390.6984638,19.25586849,1.19149246725,0.14022860025,20.0538099975,89.5483874975,96.59324332,4.955319835,34.2336108325,36.110835835,33.7548608325,-5.29672391675,-29.934178335,-9.064300667,-66.5570149975,0.05959162175
8,21.75,-1.2084356785,1.89666341525,1.3435801765,-0.0066925105,390.7747976,18.9734011325,1.1636389455,0.137262005,19.913945835,90.3742974975,96.5974140675,4.62668586,34.210555835,35.79083,32.9342350025,-6.222236167,-31.79056,-11.02014167,-63.816614165,0.05959161475
8,22.25,-1.28539625375,1.748851337,1.38092031225,-0.00524094375,391.1839524,18.8447071475,1.01553351525,0.1189065115,19.7896858325,90.692605,96.5921367875,5.2856704125,34.1983399975,35.498329165,32.2415999975,-6.839384,-32.8493958325,-12.3394991675,-61.1349741675,0.0585984365
8,22.75,-0.75476633475,1.5038104615,1.10955515025,-0.0047616305,391.0351693,18.22092623,0.945299653,0.11551076325,19.7935741675,91.221363335,96.60120512,4.794841265,34.196674165,35.15055333,31.5232625,-7.20364058325,-32.9165208325,-13.4010883325,-56.4970416675,0.0572741835
8,23.25,-0.45767390025,-0.068817428,1.2719951045,-0.00574822125,390.849975525,18.366523315,0.90770365375,0.12865743825,19.722720835,92.0314549975,96.601556055,5.02171363,34.07694333,34.8571525,30.88763833,-7.60264224975,-33.4639816675,-14.2894158325,-53.731089165,0.05561887975
8,23.75,3.04523759725,5.523436476,1.198079929,-0.007012318,391.43073765,18.31397136,0.91216049025,0.130506041,19.579375,91.6310499975,96.5997096975,5.24845061,33.8880533325,34.530419165,30.2331250025,-7.8695869165,-33.7380299975,-14.9682200025,-42.2106025025,0.052970318
9,0.25,-0.139078806,2.3739708915,0.931228564,-0.0067477615,394.1400533,17.309828175,1.2710545425,0.1536525975,22.6324,87.83425,96.52099614,8.025966395,31.40541667,31.41416667,28.478333335,-6.5162356665,-26.40046667,-13.54276833,-21.90524,0.0576052535
9,0.75,3.1385810005,6.326126059,1.696642323,-0.00747217,394.1140948,17.21725017,1.306711629,0.1704287405,22.6324,88.361023335,96.503898805,8.326725635,31.36625,31.15986167,28.02097167,-6.6522806665,-26.265351665,-13.677125,-21.755806665,0.054956733
9,1.25,2.2092818895,4.1895322215,1.494421115,-0.0081224505,394.2202682,17.145112215,1.538678899,0.176131938,22.6324,88.904231665,96.508680275,8.491066465,31.215,30.860555,27.639861665,-6.7013606665,-25.66519,-13.74032333,-19.770961665,0.0589295035
9,1.75,3.9492106475,4.664316132,1.3102518465,-0.0072031475,394.14058695,17.17211008,1.4119888425,0.1600199135,22.6324,89.68457,96.494606825,8.48887415,31.096458335,30.652638335,27.293333335,-6.7589795,-25.22087833,-13.718293335,-19.594905,0.0615780165
9,2.25,3.6267776055,4.715089066,1.3385206805,-0.009749372,394.8305996,17.25561707,1.4373580755,0.160331252,22.6324,89.762028335,96.493403595,8.592862065,30.894446665,30.39833333,26.95611,-6.702322,-24.77944667,-13.62115333,-19.469213335,0.0569431065
9,2.75,3.11837758,6.76618702525,1.290439383,-0.008291189,394.9168757,17.164418555,1.274121609,0.1674197215,22.6324,90.607281665,96.489851155,8.219520835,30.72583,30.137916665,26.63403,-6.6883541665,-24.36837667,-13.529755,-19.462261665,0.0549567065
9,3.25,2.851404996,4.646039336,2.020073363,-0.011207605,394.9875955,16.75096848,1.2966461075,0.1529407715,22.6324,88.544178335,96.491192565,8.79225294,30.7041666675,29.9775,26.44555333,-6.6600271665,-24.085068335,-13.379581665,-20.252358335,0.0536324565
9,3.75,2.814367809,6.357929642,1.284308716,-0.006700398,394.717904425,16.964217005,1.1860353175,0.143355639,22.6324,88.779958335,96.502025075,9.23172109,30.63145833,29.75625,26.20139,-6.6119083335,-23.739733335,-13.353495,-21.23098,0.0602537465
9,4.25,3.3521403025,3.36578260175,1.23482918625,-0.007434557,394.1821327,16.6976640275,1.193966104,0.156897189,22.6324,87.885315,96.499147305,8.659106415,30.439791665,29.52333333,26.0075,-6.8297715,-23.53963667,-13.33783833,-19.593461665,0.059591627
9,4.75,3.796248298,4.6191876205,1.0506482865,-0.0065512815,395.2643452,16.79516151,1.2167959825,0.140226233,22.6324,88.054781665,96.50870357,8.02675731,30.36229167,29.33,25.84069667,-6.838423667,-23.36735,-13.27894833,-18.983976665,0.06422657
9,5.25,2.7562294425,4.341404442,1.767818865,-0.0086413845,396.0533152,16.47164728,1.219236626,0.16884145,22.6324,87.49631,96.5227796,8.313026345,30.17145833,29.147916665,25.625415,-6.767403833,-22.830116665,-13.169476665,-18.321726665,5.92009565
9,5.75,5.9058603335,7.463109323,0.914052127,-0.007600678,395.880678,16.54151193,1.1730378875,0.1601143585,22.6324,86.416311665,96.535603125,9.25529844,30.09708333,28.929166665,25.477505,-6.6926525,-23.03103167,-13.065853335,-12.00116283,50.91974333
9,6.25,11.516750375,12.74555634,0.879687856,-0.008372641,396.7820395,16.7439242675,1.095169198,0.1865587055,22.6324,87.284966665,96.559937585,10.343659025,30.081041665,28.777916665,25.34611167,-6.5964153335,-22.42337,-12.67828667,7.040133833,106.95377
9,6.75,28.62516172,19.90502687,0.36428282775,-0.010285619,397.0853073,19.1782259275,1.1479631855,0.212564222,22.6324,85.55838833,96.57956432,11.34547841,30.036458335,28.55708333,25.35360833,-5.8682986665,-21.016128335,-11.98526333,76.45395,356.43685
9,7.25,69.05125322,36.2113217875,-0.09338891775,-0.0238519875,400.60344015,21.312646525,1.2856238325,0.2493974185,23.390196665,78.93937,96.618939625,18.25543477,29.888125,28.32625,25.505556665,-4.7822598335,-17.99295,-10.93947183,192.8721167,686.2429
9,7.75,107.92715295,40.03562687,-0.248764269,-0.0297520965,401.3978446,21.3530786,1.5400879515,0.249650936,25.24823333,75.76905,96.618412805,23.08078263,29.76666667,28.179583335,25.879166665,-3.028379333,-12.49725683,-9.1515335,276.01836665,913.3968667
9,8.25,145.56818535,42.0766808225,-0.54668349,-0.040153203,400.5597102,21.14737468,1.7990761495,0.30609083,26.80479833,70.773933335,96.633447015,25.542082035,29.56083333,28.010971665,26.319725,-1.330422375,-6.2887715,-6.9930505,351.0253833,1129.3093335
9,8.75,192.05624105,43.243674685,-0.513879507,-0.0603370075,399.4721283,21.55388832,2.327643067,0.356839774,28.03254,65.926198335,96.636770655,27.678801405,29.5095833325,27.985,26.956526665,0.808804565,0.4137770615,-4.523637833,415.6513833,1323.8765
9,9.25,238.543778475,42.56176131,-0.6316024515,-0.081345001,397.716769725,19.4904152525,2.724165806,0.38760198075,29.2373566675,60.2823075,96.6570700175,27.758306935,29.5075,27.846664165,27.8176391675,2.940001917,12.018002335,-1.2923436335,469.817533325,1501.34675025
9,9.75,265.6753749,58.432886035,-0.95649040225,-0.119635604,396.8529439,20.5574975275,3.4206535945,0.447769534,29.6709775,58.2015,96.619024255,27.8079534825,29.51,27.953885835,29.00020833,4.8021354165,30.93752417,2.6215045135,518.40256665,1647.96033325
9,10.25,316.18745195,54.103757725,-1.03449760725,-0.1591124165,396.4591123,20.906573015,3.5953152595,0.4942364965,30.20519833,58.2015,96.618562685,28.396089295,29.4943749975,27.93610833,30.07389,6.2125378335,50.46846,7.584552,544.463,1715.6721665
9,10.75,332.882477625,46.72041365,-0.971713333,-0.1878086655,396.353426225,21.0033660675,3.8811774385,0.51223693575,29.727635835,58.0954616675,96.606815555,28.26812271,29.39833333,28.006246665,30.71,7.65718,63.5986533325,11.59430425,566.904049975,1799.5201665
9,11.25,373.5299449,53.1018930925,-1.367808951,-0.229148164,396.254515725,21.38975936,3.99527883775,0.5439349465,29.93557,56.39838333,96.5910079125,28.926855935,29.267291665,28.08,32.66777667,7.65718,70.03142,15.8253,576.3745,1849.991
9,11.75,392.1317013,51.1095976525,-1.24310103925,-0.2443149365,395.4220077,21.11396518,4.1759234295,0.5725037815,30.328313335,58.1513216675,96.58589526,28.2382215375,29.21666667,28.354375,35.6226375,10.0666270825,77.645159165,20.9486108325,576.9274417,1866.07200025
9,12.25,398.9622904,48.7135437275,-1.540989276,-0.258730317,395.0206043,21.207468085,4.17349496125,0.586753106,30.3342766675,58.2015,96.5578372925,28.806839795,29.22,28.6916666675,38.6843108325,11.3884875,83.2279058325,30.2422433325,564.853125025,1854.280833
9,12.75,404.779120375,53.24240125,-1.021136901,-0.265724181,394.6289811,20.870594745,4.10129270525,0.5776247645,30.15341583,58.2015,96.520890535,28.8960328425,29.37416667,29.1299999975,41.386394165,19.510170835,86.8638649975,39.95978667,544.463,1802.6498335
9,13.25,413.5106134,63.08960922,-1.287944889,-0.283642513,394.98409485,20.9838792275,4.21630255475,0.57519073975,30.28676333,58.2015,96.498710395,29.7987517425,29.5075,29.736666665,42.92562417,30.9627874975,87.311388335,47.946354165,524.1507667,1720.20158325
9,13.75,391.563815675,47.9167093575,-1.39487985975,-0.2483800005,394.50066775,21.2744043025,4.118075312,0.57122909675,30.013074165,58.2015,96.4805335,29.01758267,29.52083333,30.3625000025,43.905279165,45.01122667,86.53569917,53.685159165,470.71613335,1670.213083
9,14.25,376.327635275,47.213228855,-1.43634406625,-0.244061357,394.04686745,21.2149684625,3.985833189,0.55860918425,29.74006,58.2015,96.4615444875,27.709782325,29.83833333,31.0604175025,44.2995791675,48.272120835,83.7300674975,57.4141925025,419.836750025,1523.04799975
9,14.75,349.985765925,37.357697965,-1.325765232,-0.2265449895,393.907093975,21.22992704,4.097331341,0.546381503,29.4635825,58.1912391675,96.457485515,26.947869205,30.065,31.7450708325,44.07770917,50.539420835,77.3834349975,59.0883875,350.1661667,1367.7363335
9,15.25,304.3313044,28.33392744,-1.25534229525,-0.204371455,393.79892125,20.7648355425,4.17714976925,0.52733757,28.9386849975,58.2015,96.454188,25.643985465,30.18333333,32.3491666675,43.1560441675,48.94296333,68.0050050025,57.17697417,275.905550025,1166.63772475
9,15.75,269.972078725,27.6928739975,-0.88787565,-0.186038422,394.348412125,20.5002933875,3.98185038425,0.5079015755,28.3469374975,58.2015,96.452074625,24.61825424,30.46083333,32.8177083325,42.34812417,41.415155,63.6009825,54.76506833,202.283555025,963.831700025
9,16.25,211.856500275,21.2945089525,-0.719155329,-0.172834137,394.28619655,20.56513824,3.7139654555,0.47755288575,27.928625,58.2015,96.445509305,22.7899267875,30.70583333,33.218540835,41.26833167,33.7503875,49.6690049975,49.4388875025,123.282467525,739.894524975
9,16.75,152.1390412,10.1981392005,-0.544863501,-0.134314579,393.93279145,20.180686995,3.49559325325,0.447801494,27.8147899975,59.44470417,96.446016055,21.623288815,30.960278335,33.417705,40.0854900025,23.7308883325,38.005285835,39.6386141675,40.21280598,502.005800025
9,17.25,93.9863431725,12.92592836,-0.13625378125,-0.11111554675,392.6701813,19.8620819725,3.35194375625,0.3935433965,26.37471,63.2859599975,96.460786465,18.0580317,31.22416667,33.6725,38.9340291675,16.439898335,24.6157291675,28.4753849975,-20.29589252,280.393575
9,17.75,37.5021843525,0.01403303925,0.4666996325,-0.063072993,392.31837885,19.254115225,2.91535439125,0.340584637,25.200705,69.4150083325,96.4630093425,14.42521922,31.404375,33.714165,37.6977049975,11.33784767,13.043429585,18.9674625025,-47.5892301225,97.95805
9,18.25,1.36096304125,0.703978931,1.03215383675,-0.03177368675,392.075085225,18.5591599575,2.2976559755,0.27495344325,23.8783199975,76.3058475,96.468328135,10.6727147475,31.43833333,33.7161108325,36.4036824975,7.65718,2.1779873785,13.119114165,-56.74649083,10.59804525
9,18.75,-2.54788014375,4.2282194055,1.31403418625,-0.01749747275,392.337358175,18.3501089175,2.098639767,0.2428338015,22.7207449975,80.09539083,96.4810976975,10.936124335,31.65541667,33.7108325,35.1347241675,4.28653899975,-7.22634899975,7.250295167,-56.7839049975,0.122824993
9,19.25,-1.807339696,0.7394327365,1.426808523,-0.01115447475,392.391144875,18.425630145,1.80865554475,0.21844483225,22.6324,82.4642583325,96.505469695,8.8847300375,31.71,33.693335,34.005968335,1.00755656775,-14.9621566675,1.8647885195,-54.7483341675,0.07680700675
9,19.75,-2.096060694,2.501438408,1.43407842475,-0.0100899685,393.0941316,18.1545433075,1.507636725,0.19407213875,22.6324,84.1435233325,96.534313245,8.5252612425,31.7158299975,33.459583335,32.974583335,-1.3431443665,-19.7199850025,-1.88516013225,-47.046185835,0.0672060965
9,20.25,-2.789353187,-0.10610819375,1.20776908,-0.00760885025,394.336205625,18.71984479,1.54700147375,0.16257659925,22.6324,85.29514667,96.545860805,8.0637892275,31.72721833,33.40083333,32.19611,-2.450275333,-21.52688,-4.691726,-32.82487,0.067537173
9,20.75,-2.8505599585,1.997271322,1.2914554,-0.009972195,393.640423,17.9660212425,1.485786396,0.18531917075,22.6324,87.2407375025,96.5668177875,7.625082565,31.7274950025,33.11479083,31.3100000025,-2.98877075,-22.8721600025,-6.8878695,-39.4259474975,0.0619090585
9,21.25,-1.3914389515,3.802117938,1.248857499,-0.00796542075,393.366450475,17.924435425,1.43097098325,0.16624028125,22.6324,88.475373335,96.5758389525,7.91796348,31.7160400025,32.8311066675,30.71,-3.8807516665,-24.10262417,-8.5873108335,-29.75502083,0.05959159325
9,21.75,-0.35550614275,1.013700872,1.364058004,-0.00797009275,393.53686925,17.910956115,1.33653142925,0.182237656,22.6324,88.46381917,96.583985765,8.043487605,31.6908333325,32.649791665,30.71,-4.56094658325,-25.85036417,-10.01024241725,-26.0333516675,0.066212942
9,22.25,-0.920767068,6.103681959,1.010953641,-0.00693868525,393.0806816,17.4813446875,1.23613056525,0.16396977925,22.6324,87.5876133325,96.578954015,7.3884684525,31.645208335,32.364583335,30.524791665,-5.08098100025,-26.6255875,-11.11663167,-29.133665835,0.05429461175
9,22.75,-1.93059111025,3.5484126655,1.703229959,-0.00760735725,393.26208615,17.2987982375,1.28281847,0.18399922125,22.6324,87.4103733325,96.55790462,8.128455395,31.595208335,32.1275700025,29.936875,-5.5137121665,-27.170996665,-12.077063335,-29.5403449975,0.061909095
9,23.25,-0.649013321,5.68183978475,2.13749726875,-0.00464512175,393.618545375,17.23003893,1.37455591975,0.14892197,22.6324,86.5008925025,96.5534269575,8.272060145,31.4462500025,31.879795835,29.524166665,-5.87234116675,-27.058516665,-13.02922667,-26.37839417,0.059591638
9,23.75,0.84987037925,3.235455023,1.2842370815,-0.00594536825,393.54024885,17.26338303,1.30115961275,0.17176811575,22.6324,86.6337216675,96.53352726,8.2863682675,31.405416665,31.5837500025,28.9925,-6.2520629165,-26.836239165,-13.0106941675,-22.0027383325,0.058267382
10,0.25,-3.45072591175,4.992248157,1.77352270275,-0.00716627275,395.5704413,13.9733441725,1.6259304995,0.12981186425,21.404706665,90.019185,96.700107585,18.82135911,27.05361,26.540416665,23.209163335,-7.4308905,-29.998631665,-14.992951665,-55.39764,0.0476732835
10,0.75,-4.314895704,6.660509129,1.962028253,-0.010095305,395.6045001,13.6490942525,1.61640588475,0.1429412615,21.19886833,89.549576665,96.706833595,18.5488363025,26.924305,26.284725,22.767775,-7.2300468335,-28.351905,-15.406605,-52.00841833,0.0483354165
10,1.25,0.1667030125,3.603710498,1.65727179425,-0.0099061025,395.4026884,13.7732991575,1.53863893775,0.15455090975,20.971375,90.09352,96.6887116675,19.1756329025,26.80416667,26.096945,22.649168335,-7.1263441665,-27.157515,-15.68971,-53.775461665,0.0523081565
10,1.75,-2.096489226,5.13050506825,1.57617218025,-0.00781020125,395.6298245,13.68011507,1.432703341,0.13473947175,21.109115,88.3472,96.667028425,18.4992985925,26.741668335,25.793333335,22.48624833,-7.2427121665,-26.88356,-15.453153335,-57.150051665,0.04767328
10,2.25,-4.99567490725,4.5097369805,1.326444906,-0.00851176925,395.2237716,13.4444623225,1.577607643,0.137248171,20.761483335,90.093698335,96.6532439725,18.74907905,26.59152833,25.568746665,22.25097,-7.4243883335,-26.517266665,-14.68285833,-55.00498333,0.0463490665
10,2.75,-5.3605443925,6.94287441425,1.4050431845,-0.0096468065,395.570864575,13.4225989875,1.57683516625,0.14233720075,20.642795,87.63476833,96.6464415525,18.21342552,26.539028335,25.43028167,22.117496665,-7.3555736665,-26.270695,-13.924915,-55.796525,0.045686903
10,3.25,-4.5524571225,5.49708470925,1.2178944485,-0.00813372425,395.5053984,13.169509725,1.538964473,0.14513132725,20.950561665,86.529668335,96.628910095,17.8953815775,26.36930667,25.22291667,21.841666665,-7.3684096665,-26.382748335,-14.00596667,-51.594416665,0.048335447
10,3.75,-0.696403312,6.778588381,1.441116037,-0.01014872725,396.322550775,13.1688694925,1.46275899825,0.146852475,20.507476665,86.437793335,96.6363101725,17.3782929775,26.302916665,25.068471665,21.64388,-7.5626381665,-25.971235,-14.559475,-54.547333335,0.050321787
10,4.25,-3.206914736,5.517214125,2.0218792575,-0.0088584815,395.674200275,13.1424318225,1.62851161525,0.13289360075,20.283068335,85.760963335,96.6440345725,17.07868438,26.17819667,24.912781665,21.469165,-7.6727858335,-24.72790667,-13.972558335,-57.05723,0.04634901
10,4.75,-5.342303411,5.49398437525,1.39151433625,-0.00724027175,395.577583725,13.10925211,1.4639460475,0.12772844725,20.265846665,85.647338335,96.65689436,17.0153815725,26.054583335,24.791385,21.183615,-7.3031573335,-25.518461665,-14.22956,-55.17049167,0.04634902
10,5.25,-6.30514468475,4.564745936,1.3677460725,-0.00631066025,395.775338775,12.7829564625,1.317986982,0.1273111285,20.6248,84.921061665,96.6606007725,17.1714298325,25.94374833,24.653196665,20.88528,-7.2525511665,-26.35098,-14.62514,-53.77450833,0.1397092735
10,5.75,-5.33659179925,8.19419842975,1.34576129775,-0.00736083625,395.5729314,12.662198825,1.25990424125,0.1319538965,20.383695,84.55597,96.66754316,16.53095919,25.757498335,24.38430667,20.657225,-7.3651863335,-26.822401665,-14.89448333,-49.734065,13.745147785
10,6.25,-3.12712364325,7.768704972,1.150940708,-0.00798762125,395.9110218,12.9212145325,1.19379928625,0.14651044625,20.66506,85.259558335,96.685634145,17.3943029275,25.695971665,24.224443335,20.613333335,-7.485795,-26.95012,-14.46502,-35.466453665,59.831343335
10,6.75,-0.824790588,9.890283094,0.450622315,-0.00915940125,395.7957218,13.25468863,1.20421013775,0.15382975375,20.515751665,85.587673335,96.7200397975,16.6108474625,25.572773335,24.07875,20.641675,-7.1893353335,-25.044496665,-14.00487,-18.716296265,110.66829165
10,7.25,18.5524178025,16.74464382,0.02475129,-0.0067570625,397.6014886,15.4200438275,1.18657871775,0.13722374625,21.378518335,83.086488335,96.7643775875,18.98500286,25.5325,23.880278335,20.82639167,-6.3159578335,-22.722511665,-12.907098335,58.272841665,320.316405
10,7.75,69.4744289575,35.32529527,-0.3726280845,-0.01723617625,402.6182661,17.20499574,1.308326372,0.2371919325,23.821416665,73.672855,96.79607425,29.57356949,25.382358335,23.73443833,21.040001665,-5.4394133335,-20.802073335,-11.69948167,223.68456665,713.8425
10,8.25,110.136751425,40.30002398,-1.056459479,-0.021144136,402.623695625,17.8386446025,1.3569511525,0.24433046175,25.763608335,66.726015,96.796748385,35.28150417,25.31541833,23.665,21.2575,-3.9834638335,-16.853726665,-10.459298335,295.9352,928.26228335
10,8.75,146.5560085,40.96720811,-0.849169689,-0.035279068,402.4024279,16.8777443925,1.956650289,0.299919174,27.3154591675,59.8239541675,96.77757778,41.351254785,25.2525025,23.51153083,21.327775835,-3.593960583,-10.3598159175,-8.43295350025,364.178549975,1116.58633325
10,9.25,189.861523675,38.6267664,-0.980819596,-0.04850975375,401.364452275,15.93594835,2.1132083805,0.3452396175,28.61013667,55.77291,96.7864192675,44.33345408,25.09569,23.5,21.97542,-1.921425589,3.1671564165,-5.311794167,418.25413335,1287.3998505
10,9.75,222.5525395,39.57172147,-1.005547,-0.051397736,399.9401467,15.76637821,2.552928032,0.393147052,29.9377124975,53.360306665,96.77462206,46.9799471225,25.0673583325,23.4898625,23.027361665,-0.12923115525,24.3029466675,-0.285523521,460.6089167,1424.05009975
