DOY2,HR2,H,LE,FC,TAU,CO2,H2O,WS,USTAR,TA,RH,PA,VPD,TS_1_1_1,TS_1_2_1,TS_1_3_1,G_1_1_1,G_1_2_1,G_1_3_1,NETRAD,PPFD_IN
1,0.25,-54.4587751795,-109.95899824,-4.923383342,-0.31263899705,399.0915182325,2.5979430856,0.4141482325,0.063114130325,5.950591574825,16.72833125175,96.1412796945,0.37047596775,10.577100415,9.32263835,6.2904925825,-18.28181575,-40.26651341825,-26.9719584165,-88.43754758175,0.00446925
1,0.75,-75.6050590665,-11.0961719552,-5.6058656112,-0.227343383475,399.13087832,2.36009202595,0.264900823175,0.0667314075,5.804556375175,19.08620000175,96.1185260955,0.3639281205,10.4685183,9.14154845,6.08670085,-18.72884633175,-40.90960833175,-27.48359575175,-99.24104359925,0.010394749
1,1.25,-57.9774652965,-23.663189013,-3.9815861187,-0.18513039875,398.2563298625,2.433691302825,0.3511193762,0.076903915225,5.779085541825,20.01955742,96.1017998555,0.5121352355,10.3699828175,9.0046805075,5.8749721925,-18.99021400175,-40.7457133335,-28.00332967,-87.51253675175,0.00990175
1,1.75,-93.1244523785,-29.43111756,-2.01785382155,-0.37781934315,399.1511140725,2.55331386885,0.321565892525,0.057126983825,5.734188233175,19.9236005835,96.0808399685,0.48346976975,10.2911457675,8.8361518425,5.6927714175,-18.89220067,-40.08790649825,-28.35810792,-85.3152841665,0.00982625
1,2.25,-77.686807368,-16.39783439,-7.2421014412,-0.21927852555,399.256278755,2.63120285005,0.206688920375,0.041352461475,5.518384116825,21.99045258175,96.05410922525,0.43300887075,10.190180575,8.691297815,5.580181016825,-18.9146735,-40.00605683175,-28.0314473335,-86.48197325,0.00718575
1,2.75,-63.36846029375,-12.622896606,-6.48055252125,-0.2231164509,399.20747494,2.6959706045,0.31521601115,0.0434007157,5.38820279165,21.05849666825,96.053160679,0.43941524,10.12106139,8.5837848175,5.455610516825,-19.0539325835,-40.943775,-28.29486608175,-86.4445015835,0.0112175
1,3.25,-83.67120239775,-35.46298864,-2.3371491657,-0.236761150375,399.156179325,2.6318018913,0.2537704965,0.049385265125,5.649747800175,22.81263524825,96.042715327,0.42884977775,10.002502585,8.435312625,5.335076525,-19.07119483175,-41.08494149825,-28.67352266825,-87.5567993335,0.008577
1,3.75,-97.34811142025,-7.8848220154,-4.28798003025,-0.2276075289,399.21969494,2.65977945535,0.227710568575,0.0600562197,5.262338175175,21.73628342,95.9963829445,0.42826634675,9.895388325,8.2882981075,5.19929891,-18.96052299825,-40.65291083175,-29.00435283,-87.2313876665,0.005229364175
1,4.25,-87.4135547695,-1.4948392162,-2.8749387663,-0.2070281467,398.280367595,2.6465697477,0.246478046675,0.063481899875,5.47638370835,22.77603058175,95.98821709125,0.43440194475,9.8322698925,8.1560338,5.007374665,-19.0525128335,-40.63537817,-29.03470458,-92.6170381665,0.0119
1,4.75,-94.21320368775,-19.281061867,-9.105957128,-0.31268684585,396.325214255,2.589112821825,0.288859241425,0.04929339875,4.7759913925,22.25760941825,95.9996702665,0.43168691275,9.71965204,8.010708525,4.8398683425,-19.38391417,-40.70118100175,-29.17851125175,-86.03619366825,0.0052308375
1,5.25,-87.59329761875,-26.663123084,-5.474235845375,-0.29987095905,399.08547513,2.56801891785,0.3660553735,0.049346058825,4.6152881075,21.85060316825,96.05757555425,0.514601975,9.65212429,7.9042294,4.6660075925,-19.53972142,-41.13909908,-29.44354616825,-95.95071043575,0.013113266325
1,5.75,-103.454446475,-31.734973641,-3.410374431825,-0.3072197766,398.97610042,2.579716874575,0.374576669025,0.062579429975,4.51499308335,23.08951941825,96.0808570305,0.54954607575,9.57430514,7.781763475,4.507076084325,-19.42203375,-41.67825183175,-29.7146755835,-95.17675475,0.004403229
1,6.25,-84.5238819215,-22.38317006,-6.170157803775,-0.320512899825,391.14157654,2.6566374498,0.530491923425,0.055950210175,4.529560025,22.10891566825,96.10976162325,0.51988341325,9.443465225,7.6788672675,4.365666965675,-19.53132117,-42.00107341825,-29.92003199825,-85.59808233,0.037035
1,6.75,-64.526698358,-37.45866599325,-4.52170098665,-0.3262206388,398.896059225,2.564286394825,0.24566059665,0.07754595805,4.748757775,21.91027941825,96.17885803025,0.4731725055,9.3903898,7.52071535,4.227285240675,-19.7136254165,-41.87062916825,-30.06587399825,-80.11945441825,1.612550022325
1,7.25,-86.799023934,-21.1672847733,-2.4694190115,-0.74249315455,376.594075205,2.56648665695,0.27394983545,0.057827312175,4.5478811575,20.56888675175,96.16644042125,0.51393480525,9.314798575,7.4203746425,4.082881674325,-19.23434191825,-40.93979767,-29.99757700175,-73.86909600175,14.61015193175
1,7.75,-87.27470225325,-68.39337695225,-5.100741275925,-0.576267495225,398.36443765,2.6690818981,0.203816007725,0.0596534238,4.778040509325,20.5531279165,96.19708115775,0.58348753675,9.19425769,7.3148403075,4.119700499825,-17.81190525,-39.01979800175,-28.96866467,-63.97187483175,54.73824525
1,8.25,-62.0466385305,-11.778135792925,-4.087982012275,-0.77506700045,383.75294399,2.5756105029,0.28849007965,0.06037242285,5.00263029815,19.6651083315,96.230555353,0.5131059255,9.10156975,7.19740195,4.21836090015,-16.257599833,-36.8073663315,-27.5339909985,-58.6513670015,75.9374474985
1,8.75,-32.69358601,-0.891450549,-8.0374908819,-0.53874852005,370.833181195,3.225418102575,0.168536808725,0.051351142025,6.5218381225,17.7092002495,96.27207671525,0.47507057175,9.026520175,7.108715375,4.4052216,-15.11626883,-34.24140916475,-25.92971033525,-1.2752378455,104.37845875
1,9.25,-19.69327787,2.95036463705001,-6.87121600895,-0.6203649169,391.1410566425,4.1151671599,0.163695855775,0.0785396276,8.782521158175,18.77816067,96.288167324,0.9496316305,8.9963754,7.01360434,4.685221433,-12.93529724825,-30.03124508,-20.8367250835,7.17975806225,133.0685706825
1,9.75,-36.36593309575,9.93355069275,-7.84160503795,-0.69817615115,358.8387828375,4.0213078357,0.2591325946,0.0721358802,9.251241733175,17.64788225,96.324405096,1.0197730415,8.91410506,6.970994099825,5.092896574825,-10.434136515075,-19.26359259325,-11.2729081085,23.0763010485,198.333673315
1,10.25,-48.1132565005,-9.290403294825,-7.1501628528,-0.5040094691,397.8635148025,3.93833992025,0.399756456525,0.0691195217,9.327527492,16.6979115835,96.30596131575,0.8741163845,8.8305135,7.0089785325,5.80675011665,-8.094774242,1.817236683575,-5.246092243175,15.03871140815,160.1639105
1,10.75,-25.8588126515,-9.66741582289995,-7.908610617375,-0.5364379994,398.92171434,3.9473369844,0.528259955025,0.088866993425,9.425157975,16.1977744165,96.29953894575,1.0202130045,8.8071602325,7.1207706325,6.57170869165,-5.99758143335,2.14421113665,0.45433204185,40.7605257775,257.3030283
1,11.25,-3.3686555294,27.996873808,-8.597237899425,-0.7059268416,398.5044079275,3.8726523717,0.59419984925,0.1142635165,9.960090925175,15.2640311685,96.2483340475,1.000298124,8.7930707,7.2533053425,7.070756949825,-4.69504903335,3.5465343726,2.303924962675,14.58777047095,324.48322002
1,11.75,-23.74152049,-41.90103896625,-7.556247412025,-0.650756277225,398.53428307,4.0244304547,0.47214991185,0.076572945225,10.08008760675,15.306935833,96.191929911,1.12724281,8.813409482675,7.4287498325,7.953617558175,-3.621132850175,11.6024087335,6.69947203335,-18.11205138475,295.33076501
1,12.25,7.67089063,-178.99333592405,-8.664657116,-0.64912909135,398.203891875,3.922788012725,0.7811371828,0.13885585675,10.13237430675,14.58459267,96.141828688,1.370735244,8.896027142675,7.701374407325,9.121958783,-2.556882703,12.31693587,8.6153359332,7.432904908125,209.8781583
1,12.75,-2.53729379625,18.85209428,-7.3765209,-0.76554310075,397.385974815,4.216428105175,0.651670928875,0.143488804825,8.926902900175,15.1893085015,96.12214890975,1.295520276,8.954167207675,7.960589475,11.24108235675,-1.330204475,13.44928713,9.65287636685,-4.636617750625,169.7794274875
1,13.25,-35.67893126225,-12.14224533505,-6.24260989565,-0.93493093725,378.3720035425,4.100662610875,0.76577171885,0.1106199354,9.072920041825,15.5505865835,96.09384422375,1.22785877375,9.017209792325,8.322708291825,11.5346234165,-0.812491783174999,-0.948979733299998,2.5646898802,4.8295826333,209.5591567
1,13.75,-24.27458216925,26.557526105,-5.5504257922,-0.6568186412,395.2519971575,3.826153109075,0.5474151951,0.1093317504,9.652449849825,15.68678492,96.08930659025,1.12944455,9.150167467675,8.81057569165,12.28960249825,-0.543983367325,-2.14380614465,0.204991167000001,-6.9185077592,163.92023933
1,14.25,-34.4943977,-1.81481660065,-6.3058140162,-0.51255228795,396.39092248,3.703485789775,0.71230451095,0.118302146375,9.95626847575,15.20040875175,96.0759179445,1.1276010815,9.336292750175,9.329805258175,12.825127167,-0.926132941,-3.54937749985,-2.135296428,-30.59556015665,158.591265315
1,14.75,-13.44829006595,5.8996186108,-6.640036746925,-0.47239782375,396.334288215,4.424856195,1.1437405394,0.1392425534,10.17192018075,15.97981382,96.07975135025,0.99736036325,9.570708782325,9.93462453175,12.7286283315,-1.627136175225,-3.24355914985,-3.0892667995,-6.894682253,121.24934233
1,15.25,-37.35971964025,-48.8021195005,-5.744309476625,-0.5486033714,396.0887597275,4.225680802375,0.704529545,0.140368755475,10.043107281575,17.85210333,96.07551521275,1.0392157625,9.787902892325,10.4892063,12.534343667,-1.4684908496,-2.7167137167,-2.61892685835,-20.3812831835,117.3453037675
1,15.75,-59.49735953825,7.19126595785,-5.269951523575,-0.593641383,394.330764675,4.033689425975,0.541088839875,0.0895740594,9.587645400175,17.21503483175,96.08698640975,0.7827930525,10.046687149825,10.907502585,12.184181167,-0.579566776525,-2.87806164875,-2.86645585,-21.55169614675,75.72944
1,16.25,-41.219869385,-43.3978944991,-3.0144681673,-0.65872070715,394.91519538,3.913842352875,0.52605234515,0.111015619,9.8282675575,16.84239099825,96.1172342705,0.63536522275,10.2459594165,11.1563557325,11.843925833,-2.141966206825,-6.139991375,-4.459517408,-30.154519225,49.1843326665
1,16.75,-54.0090540385,-14.246188388,-6.337579883025,-0.518322067525,396.4293213875,3.899310985925,0.27761645035,0.0659776104,8.912514574325,20.46815275175,96.12731778675,0.69834812175,10.3889498335,11.2749957,11.64821766825,-4.98718330835,-13.12246894825,-6.63862789165,-72.5940818335,14.6338230665
1,17.25,-77.825505294,-9.065685882125,-1.35441727665,-0.4827434033,368.38551033,3.39448442835,0.51481092325,0.0769154474,8.241350382325,21.9594638335,96.148644337,0.55400091875,10.5903755835,11.3390262675,11.571719,-6.95056639165,-17.60458250175,-10.824593375,-91.26993433,0.5207643525
1,17.75,-85.63546233,-51.447966849,-2.108898077,-0.5047915788,395.00083608,3.1766181559,0.3792939962,0.0586904578,8.28528680835,22.11790658175,96.145525312,0.493687171,10.73607915075,11.368489835,11.41064781925,-9.61776185175,-25.058402,-14.63881992,-91.63333483175,0.0244464275
1,18.25,-67.0020715715,-20.28483991,-3.4852110197,-0.43886428115,394.71415779,3.068373607475,0.35759642385,0.042055477525,8.134676950175,20.18811341825,96.1712471165,0.61913520725,10.83561234925,11.3344859825,10.96668224825,-12.6043175015,-30.195729,-18.31622766825,-89.08726491825,0.0152175
1,18.75,-82.78057223025,-9.445509239,-3.2377040273,-0.449381625425,396.9025140275,2.701936676625,0.43245521575,0.057460269325,7.719783358175,17.8880594165,96.20730430125,0.605776485,10.9953899825,11.2875290175,10.4859582,-14.57345208175,-32.87675550175,-20.26073425175,-90.29842983,0.0092699055
1,19.25,-72.54103650725,-16.48551205875,-1.42505848575,-0.3855135223,395.47650212,2.512644501025,0.44995821035,0.036431147925,7.40909991665,17.944454,96.26114891225,0.59582410575,11.0617015175,11.1958573,9.944929925,-15.77746791825,-34.23693425175,-21.86919991825,-91.2125474165,0.003277536675
1,19.75,-90.54580693825,-16.441422949,-4.620561508925,-0.421140441925,395.2398862375,2.480132869625,0.579442310825,0.051655664425,7.805635066825,17.64819233175,96.28200632375,0.6072853475,11.07677606425,11.080801415,9.486568675,-16.22971100175,-35.50747108175,-23.19784491825,-89.3781851665,0.0038375
1,20.25,-111.34165075,-36.82393868875,-0.828846717,-0.404653345725,396.365465345,2.342353515025,0.40462432865,0.043789974225,7.652866807325,16.2644505835,96.31244718525,0.6557855505,11.08113883175,10.913590915,9.0783332675,-15.89943891825,-36.3947984165,-23.22357317,-88.5204613335,0.0131825
1,20.75,-78.238551654,-42.3881929565,-10.848822481075,-0.488452624975,366.60183175,2.384530407425,0.439665675925,0.0346634199,7.676964925,16.79681667,96.3394291155,0.6155409345,11.0507861825,10.726194335,8.73888255,-16.02343124825,-35.65781475,-23.81191242,-88.8916948335,0.00718575
1,21.25,-62.829573228,-19.1868745553,-6.5018715975,-0.35968886855,385.8152012425,2.376435833225,0.3853654657,0.049559672975,7.392997208,17.13218783,96.34347957325,0.47575416325,11.03190850175,10.5471749825,8.4225837075,-16.59745774825,-36.26224825,-24.37590458,-91.72299608,0.008576901675
1,21.75,-59.4247342755,-24.67522025025,-6.158329224775,-0.452137814125,386.758791195,2.244350481725,0.319895750375,0.037930893475,7.330687575175,16.38789358,96.3394992925,0.484314603,10.9798333175,10.3670498,8.136437433175,-17.1422785835,-37.51798725175,-24.63793658,-89.0920189165,0.0119
1,22.25,-93.63414241875,-78.00488753675,-4.659644857625,-0.455809776825,368.43443732,2.249033240625,0.345855661025,0.04937069995,6.872372108,16.9916346665,96.32437997625,0.47142081725,10.85330743075,10.2178194825,7.800805657325,-17.62170458,-38.91401058175,-25.01801516825,-89.88307041825,0.00390875
1,22.75,-72.498138495,-83.9151548875,-2.266412024,-0.3173199217,363.20789556,2.374965421275,0.431759862825,0.0718588148,6.450339367,17.56227717,96.2936804675,0.45204249325,10.80058231925,10.0470476575,7.526652332325,-17.82264617,-40.10124508,-25.48509675,-89.654941,0.0044032325175
1,23.25,-71.41887239275,-61.41868911725,-2.49855217035,-0.31649951845,381.46224204,2.360038516375,0.39725292665,0.062148887425,6.63422565835,18.15881016825,96.275041328,0.4034945025,10.76708956425,9.89170041,7.298569132325,-17.95665533175,-40.08490308175,-26.051605,-89.2068416665,0.008355699
1,23.75,-93.324899664,-27.907718243,-3.5690227255,-0.391029801275,396.16509424,2.478000818525,0.403393985525,0.06073031465,6.431718025,19.20753499825,96.25807076,0.3844722565,10.72109615075,9.7383331575,7.0652501325,-17.9696600835,-39.8696951665,-26.5629844165,-85.89126708,0.007879418325
2,0.25,-66.89966867475,-15.9216813534,-8.4237845708,-0.22006633875,394.92630161,0.000934843275,0.476767474275,0.0327181697,7.149950934325,16.69370900175,96.1554150045,0.546809829,11.84011,10.9097042675,7.736472115,-20.88235925,-45.04668875,-29.350522,-84.90666725,0.013865
2,0.75,-66.163342951,-133.5696476,-1.63524526465,-0.17489850805,397.6662611525,0.001071333875,0.3153735409,0.068872242,6.820939459325,16.07224633175,96.17528017275,0.58676752775,11.754793085,10.720164165,7.5243183325,-20.87378416825,-45.00026617,-29.4877975835,-86.5862109165,0.01110875
2,1.25,-72.7359753725,-16.778602112,-2.813715571375,-0.201985969325,398.700830675,0.000410873,0.300772091875,0.0675149883,6.507807740675,17.20233300175,96.18288269875,0.5975578045,11.6764388,10.5271022,7.32678515,-20.69714600175,-44.67476866825,-29.55640924825,-81.52431908175,0.0112175
2,1.75,-76.48976879225,-29.27956243075,-1.785081935025,-0.283722082875,398.307339655,0.00071913735,0.280916332875,0.062311221,6.5542412925,18.51919774825,96.18115466275,0.529442663,11.6086805,10.353766,7.1072296425,-20.59940600175,-44.49310717,-29.52126967,-82.08333142,0.01051925
2,2.25,-71.6812697095,-27.963008531,-8.5876893306,-0.267265844825,397.8981615425,0.000754629125,0.360738361425,0.042440689125,5.112712625,18.26463842,96.1688588,0.5781010185,11.4915253175,10.2113462,6.86729239,-20.64249974825,-44.6846095,-29.72716883175,-83.19814799825,0.0125
2,2.75,-80.76469514125,-31.2677166265,-7.6977468772,-0.252669033575,398.1687672,0.0003134785,0.214053081525,0.06266989575,4.8353342925,19.0910650835,96.15009736675,0.557088213,11.393726085,10.02778109,6.5526602675,-20.54597575175,-44.77480733175,-29.7915461665,-82.5975363335,0.0131175
2,3.25,-68.3135353565,-45.229261844,-3.5504421236,-0.35109769075,396.43003636,0.000742655775,0.153223685,0.05542151825,4.398869475175,17.56403283,96.1846856215,0.41228387675,11.3396446825,9.8564094675,6.306993925,-20.48900883175,-45.30383508,-30.20290767,-82.5655106665,0.008574662175
2,3.75,-87.672694139,-7.4594434152,-2.6981075754,-0.261319113,396.7759924675,0.0011912456,0.27689184345,0.06030421355,4.990787025,18.24440891825,96.17226462825,0.3555334155,11.2082203175,9.7076802925,6.112687115,-20.24039491825,-45.32350958175,-30.39275191825,-84.0801213335,0.017825564
2,4.25,-89.4587877785,-54.8193002285,-3.804673253475,-0.36407048245,396.84968095,0.00152150185,0.394247954275,0.056115353875,4.742424785,15.90289283,96.19334054325,0.3836999965,11.1506993175,9.56729866,5.9234791675,-20.01136016825,-45.27299333,-30.4403561665,-84.61732541825,0.0051675
2,4.75,-113.3984153775,-5.9771916244,-5.814817021825,-0.34935286895,397.090272015,0.00122008275,0.307439734375,0.050215488025,4.61466036,16.7225018335,96.18260674725,0.49209668375,11.10054705,9.39183995,5.766673375,-19.95384133175,-45.0964826665,-30.40635808175,-82.1227635835,0.0092699055
2,5.25,-95.23018588425,-44.25673646575,-4.995481146275,-0.368584566925,398.064109895,0.001128739575,0.172654255875,0.070026160975,4.442670024825,19.34682375175,96.20112120125,0.4931785155,10.963845585,9.22109054,5.5787018175,-19.71907042,-44.93519474825,-30.38425599825,-81.58384966825,0.001692
2,5.75,-84.676277264,-16.86719700875,-5.7079940301,-0.36150048455,398.05424381,0.001116039375,0.28310616145,0.069054236075,4.2473354575,19.3227946665,96.2019190825,0.5197780535,10.8999952,9.09007675,5.40153505,-19.5705721665,-44.80728424825,-30.4554344165,-80.2484818335,0.0125
2,6.25,-81.80830742075,-42.168728892,-1.89797648675,-0.24506780575,398.355824265,0.172321220725,0.370572570375,0.08128555795,4.536642142325,19.90602950175,96.21733490975,0.51759628075,10.8484040675,8.959118075,5.2268609,-19.49370200175,-45.07593258,-30.67008274825,-78.2664921665,0.256078540175
2,6.75,-80.7178935335,-38.3251938475,-6.204076684,-0.18566588915,398.24318768,1.824347665125,0.19299189725,0.065903820575,4.4048661825,20.07548925175,96.24812002825,0.519634714,10.70514045,8.82713171,5.077749375,-18.8447551665,-44.83134416825,-30.75733649825,-71.83375183175,8.371729825175
2,7.25,-84.09346666325,-5.3034901859,-3.83239887875,-0.24448566465,396.168077165,2.69616448485,0.238968364925,0.05943938305,4.454961207325,20.73869666825,96.26690136175,0.47507466375,10.61008245,8.628590135,4.99768631,-17.3441641665,-43.40367108175,-30.16380025,-62.2887111665,41.82045899825
2,7.75,-72.136475552,-38.315781693,-4.8444149032,-0.128315067075,396.4654274475,2.49756216645,0.32857612265,0.066840496925,4.9055799925,20.98448391825,96.28163039025,0.41651854625,10.5128413,8.4767291825,4.9950603,-15.92488400175,-41.10425724825,-29.06971025,-52.75579292,87.50434725175
2,8.25,-57.616449631,-12.1397417712,-6.674490407,-0.1904909607,392.070423775,1.07624806575,0.211328546225,0.06579274835,6.492420034325,20.80044433175,96.312019031,0.3887137525,10.3929369325,8.39176415,4.9955875,-14.51686949825,-38.44561866825,-27.6267449165,-30.68289664325,137.6721938175
2,8.75,-16.2429170335,-29.859665354,-8.0021066218,-0.203722129525,394.921177185,1.23104775575,0.21846394515,0.0653314178,8.264428865,19.8836369985,96.295507095,0.5268005225,10.33073567,8.270318835,5.12479145,-11.9411368315,-33.060947333,-24.6576501685,18.5502687415,168.02443667
2,9.25,2.437745993275,-26.81004856625,-8.61617043675,-0.2862695731,393.154803745,1.1415846915,0.144422581525,0.066804206725,9.365669316825,18.25004833,96.26738559275,0.51343434625,10.23412205,8.2016611325,5.4815493425,-10.034421741825,-22.39074675175,-20.11078041825,18.541720045,166.7222512675
2,9.75,11.698726457075,24.09865625525,-9.2795611162,-0.30078886895,395.2541912675,1.39328485825,0.500243276925,0.074944226075,9.817741091825,16.25623075175,96.2266614875,0.57451970625,10.1495840075,8.1547929,5.9209240325,-8.465896083,-3.72990810165,-12.09183167675,63.79569500175,249.8235983175
2,10.25,28.88224911025,6.75944352150001,-10.065248903375,-0.488884802125,396.0822658725,0.509614488625,0.5142025203,0.0826506898,10.40616655575,14.5043069165,96.211117888,0.60600277875,10.1190644,8.14259825,6.7080211,-7.126528241825,3.120409207,-4.248083724825,54.98662525,325.5736867
2,10.75,16.1022181947,-4.27903149950001,-9.328197618375,-0.4578842608,394.83097928,2.203838126,0.59154380375,0.095950572575,11.13836774825,13.970580333,96.20467434825,0.668080248,10.044021915,8.18568125,7.7972288575,-5.355447558175,4.588626148,0.348901133175,81.34585449825,335.180281665
2,11.25,22.55910948225,29.1848555085,-8.9725832253,-0.436403046975,394.65441602,1.261182265325,0.73116046445,0.096435017925,10.75532784325,13.3054541685,96.18582293325,0.693371502,9.9867233575,8.2846806,8.69322284,-3.219193066825,8.412080643425,2.599743778825,58.22148975,223.5680324825
2,11.75,4.6140674531,-23.19027976,-8.4686682682,-0.355639303,394.4676547325,1.39868115565,0.6143749248,0.0769168863,10.64072752675,13.38188425,96.1379073765,0.71844363025,9.9566197425,8.434347075,9.7319799425,-1.906615883175,9.75055375675,7.405785225175,53.1650851875,270.9488208175
2,12.25,13.835574907,-69.13023595625,-10.19723116575,-0.4690851726,394.5984518875,2.80110613375,0.76440710685,0.1628316556,10.8131736665,11.86671695675,96.0948972465,0.66376062625,9.9706603075,8.6816457175,11.4502702325,-1.723606247325,7.48200270835,7.298714858175,54.87543542,225.9860142
2,12.75,15.618665923,49.37842326875,-9.3885318495,-0.3813064932,393.250722545,1.7970544226,1.126959891725,0.202861366325,10.9637570015,11.8180104985,96.00074085825,0.7465757575,10.0080574425,9.0407429175,13.1250586825,-0.78525953945,6.02766798335,6.64576668315,71.80250768425,286.2724108175
2,13.25,-5.16828163175,-1.63550582700001,-10.556461074,-0.3694019294,392.936860215,1.24955479215,1.4208238311,0.20465017285,11.1254385,11.73863583,95.92995386475,0.786359316,10.091585825,9.5087563075,14.5458576825,2.018884205425,6.324447074825,6.5967952666,71.23743041825,293.4014642
2,13.75,28.405231242,-11.5118653158,-8.7046137012,-0.4452177872,392.12225933,1.96575941515,1.2344822667,0.247444341675,10.8851409985,11.38173208175,95.88415060975,0.754799139,10.2290239325,10.103008825,15.38732116825,3.237312921925,5.4611041705,6.755253750125,40.78609992,229.852460835
2,14.25,25.523003755,38.434437699,-8.9552897528,-0.5118136057,390.96674636,0.9296569958,1.758833579475,0.246920670575,10.71236875175,13.02238725175,95.8201096015,0.9548116655,10.39796925,10.7941120675,15.26227043575,2.41334006485,3.696988931925,3.29491374175,37.14237069825,229.9196733175
2,14.75,10.49368020415,-11.16443379225,-10.8366302968,-0.39366928265,387.16469204,1.001555387625,1.3526017912,0.171997052875,10.80413933175,12.78782449825,95.73222072175,1.058987648,10.66314445,11.43071095,15.0316388165,0.645480440500002,3.474976293075,1.732331258475,20.866706456,191.301335665
2,15.25,-1.70650794235,25.114690236,-7.307155847,-0.360699246125,390.710299205,1.012112671125,1.124040016175,0.201801611475,10.63779633,13.31719533175,95.62651452775,1.313544705,10.9194597,12.053149165,14.824392685,0.320635327125,1.572743274825,0.820464417,18.90776669625,172.1737374825
2,15.75,-13.67413530425,16.05978662575,-7.7032122245,-0.3626986918,394.013711255,1.6566930055,1.09208276595,0.210169759325,10.62518342,13.31927391825,95.5981545115,1.18399189225,11.1790605675,12.6345819825,14.66090766825,-0.75519034245,-1.7466233925,-1.0352960675,-4.02309457835,101.9121961825
2,16.25,-18.22784605,-14.619163312,-5.56894427085,-0.3388562564,394.058961295,1.7234956712,0.913236548425,0.1674343588,10.46602325,13.7484565835,95.688964657,1.0357598345,11.42845055,13.06319925,14.41622118575,-1.2959981508,-5.0945218155,-3.290053859925,-30.247058646,61.97488775175
2,16.75,-50.527859983,-8.884085987975,-7.113394437325,-0.328725398625,392.9254659225,1.538786289925,0.774157152675,0.0917152906,10.26224581575,13.70276908175,95.742147444,0.751247542,11.65887305,13.273128165,14.10205055,-2.266764100175,-9.5093053325,-5.23311300835,-47.5769305835,43.444696
2,17.25,-53.9146040865,-12.669781148,-2.1562643896,-0.289342764325,393.195097235,3.39885309545,0.765052299375,0.09954278845,9.852768982325,15.55326925175,95.7761817875,1.045447593,11.8425142325,13.360634165,13.5738540175,-3.3296714,-15.0022603335,-7.572451841825,-87.5828938335,10.349816156575
2,17.75,-74.133897945,-14.6079930445,-1.6482573476,-0.2939518954,394.116777465,0.386919898475,0.733931929725,0.0494935094,8.671603832325,16.45485975,95.81357223825,0.8813936305,12.040187915,13.3563101825,13.0124552675,-5.25526993335,-20.63938004325,-10.7644576085,-100.79779362,0.441540798175
2,18.25,-75.789726869,-78.25962765275,-5.367442503325,-0.37002363355,393.53668534,0.002812211975,0.721883267425,0.060171625,8.197274167325,16.1574961665,95.85807521925,0.6561577385,12.177063915,13.3117733,12.6471193175,-8.909106208,-29.84894233,-14.80382342,-99.8861369825,0.024484257
2,18.75,-80.4331515665,-150.6302406225,-1.631512586575,-0.472546270575,394.74833095,0.00104331825,0.3786848463,0.063108968975,7.8547863575,17.237841,95.91878810325,0.559093282,12.3277340675,13.1441472,12.109422335,-13.79941691825,-34.7976946665,-17.8106623335,-92.35242266825,0.020335
2,19.25,-78.976486755,-70.25086684575,-3.80417911475,-0.384789532125,394.56236859,0.000786722575,0.442880738775,0.0581413064,7.7265041575,15.36706633,95.94830142375,0.518033468,12.344489085,12.97539295,11.4501923175,-16.93983525,-38.37112533,-21.17725758175,-90.93017791825,0.0231175
2,19.75,-79.859516015,-20.8607980045,-2.40871259475,-0.29419475865,395.99841496,0.0005283463,0.465616324675,0.053407378275,7.5882462075,15.277841214,95.9632272815,0.5356521775,12.3510007325,12.7560710675,10.8970517675,-19.8466128335,-41.262307,-23.66424749825,-91.63004217,0.0131175
2,20.25,-78.21871574275,-11.94773042475,-7.646219043,-0.4546435824,397.04449937,0.000706767125,0.70573530105,0.05751711725,7.21476164,15.6888714165,95.9929401795,0.52985415175,12.3490660175,12.58348795,10.379201915,-19.55513142,-43.2681164165,-25.20035825175,-90.41768067,0.0146
2,20.75,-75.0941930765,-31.887030922,-5.7864297896,-0.23845131965,395.4327482875,0.00104715035,0.67120649365,0.05791270705,6.94689276,17.396441,96.01037816275,0.41440927925,12.3487232325,12.360059415,9.91497775,-20.25204924825,-45.10464475,-26.31116066825,-91.5005219165,0.0125175
2,21.25,-79.17220205625,-20.78356037,-4.06617906985,-0.301793337525,396.1344788125,0.000860907725,0.5261523087,0.066130110125,7.163846485,16.48895883,96.0225909555,0.44641719675,12.329496335,12.1000584325,9.52574296,-20.6863585,-46.07195866825,-27.18217424825,-90.12443608,0.00920875
2,21.75,-74.40447185675,-27.71536389075,-3.4377321552,-0.3298365831,396.797543215,0.001396418775,0.608506901325,0.07269739975,7.5404870575,15.9193766665,96.041675459,0.466085599,12.257756585,11.9154982325,9.1886317175,-20.5182123335,-46.0865618335,-27.95567291825,-89.9804354165,0.0211408805
2,22.25,-80.30275246625,-43.6752728335,-5.09940440845,-0.23429709845,398.016786105,0.001242787225,0.38834937525,0.054331904475,7.323869500175,16.0081454165,96.04337207275,0.715141524,12.1756033,11.655794835,8.8937155425,-20.69321333175,-46.24910275,-28.38457275,-89.86337241825,0.0112175
2,22.75,-76.03770697125,-33.515290927,-7.275573404,-0.385036825175,397.004018105,0.000481509125,0.466053968275,0.046951368075,6.556907334325,15.57120633175,96.0561003465,0.69385613425,12.0872803175,11.4821392,8.535549425,-20.68240175,-46.1527841665,-28.30944650175,-88.4729868335,0.013113275825
2,23.25,-65.69833290125,-59.83669791925,-3.5743798954,-0.1952697326,396.950139345,0.0009527791,0.297047817975,0.0633438125,6.576984990675,17.05427424825,96.09772487575,0.54891172425,12.0127167675,11.265360585,8.2990204,-20.99864791825,-46.4737923335,-28.71881542,-91.63484967,0.0112175
2,23.75,-61.3717113205,-56.657544837,-5.6748157605,-0.313314190675,398.217963755,0.000219076,0.438376001825,0.04976640445,6.809393591825,16.49683925,96.116997872,0.5335936915,11.9241192,11.10594495,8.0348193675,-20.9360569165,-46.43739592,-29.18660108175,-93.19877917,0.0164525
3,0.25,-78.81857942225,-9.000314775,-1.8057315833,-0.133080652525,393.5141445125,0.0002229438,0.35501297785,0.04980480985,7.497359442,20.67985492,96.144871756,0.525661084,14.4351146665,13.6267245,10.28051092,-21.65930291825,-47.09836275,-28.59111992,-92.07058074825,0.015835
3,0.75,-69.47626641425,-39.92891770875,-4.78333299215,-0.144037229175,392.64957605,7.348e-05,0.39195476545,0.061683356975,7.416755958175,21.2873075,96.12042025825,0.553164096,14.36521383175,13.40923675175,9.988172106575,-21.70164575,-47.45922783175,-28.91388175,-89.86176949825,0.011835
3,1.25,-58.86615655075,-28.373199236,-4.5855635637,-0.1104016869,390.9102648375,0.0001338527,0.3980301539,0.037993872825,7.641102442,20.26975925,96.1226852595,0.5340985715,14.21773867,13.21460317,9.732284992,-21.8407620835,-47.5387408335,-28.71990933175,-88.3698151665,0.0178175
3,1.75,-62.16646422925,-6.9836302656,-3.920612778925,-0.104883663175,389.97008094,0.000237629375,0.288085401075,0.045814688025,7.413289558,19.66455242,96.10556782025,0.466471769,14.09871617,12.99187675,9.528360449825,-21.75063474825,-47.60394050175,-28.36856533,-84.0117315835,0.0178175
3,2.25,-59.3787345465,-15.777587792225,-2.55645663995,-0.15359539545,389.95998722,0.000214270775,0.4586086856,0.05723380665,7.10814525835,18.61120141825,96.091019234,0.4436769905,14.01616024825,12.75047758,9.298187574825,-21.5450566665,-47.30453724825,-28.05462733175,-85.97787175,0.0053
3,2.75,-79.8663177485,-17.2427561913,-3.3087423525,-0.107598286775,391.80263368,2.7375975e-05,0.36015220785,0.04587935855,7.323010175175,22.46071175,96.08854165925,0.484160655,13.82620641825,12.58644667,9.133236275175,-20.94864358,-47.11778333175,-27.73295766825,-83.6074039165,0.01234375
3,3.25,-67.49955053225,-38.623481585,-2.500109449825,-0.119386145525,385.92432434,0.000451434,0.2912099931,0.054613591725,7.390755242675,20.79929000175,96.09094545325,0.541871318,13.76091608,12.39394275,8.950605182325,-21.01397999825,-46.4482473335,-27.59403091825,-89.01243383,0.00662
3,3.75,-62.73471403025,-29.3734356775,-3.7707833602,-0.093198629325,388.480677635,0.000302348125,0.177232540175,0.051208107375,7.041931392675,20.37851358,96.1118432265,0.48791276125,13.60960066825,12.18273833,8.711542317325,-20.8208848335,-46.35860449825,-27.51961708,-85.04959075,0.0184825
3,4.25,-55.899449702,-5.822157226625,-2.4350373097,-0.086164889375,387.35237341,0.00017080535,0.13696269605,0.05812395715,6.920312374325,22.30267266825,96.144871899,0.439788942,13.46878216825,12.02803741825,8.492396292675,-21.25192258175,-46.2627750835,-27.71673108,-86.81201025175,0.0131175
3,4.75,-86.79936260725,-7.083735807575,-1.63477393035,-0.114794835925,389.9486633925,0.0004631307,0.45654711485,0.063462718075,7.47156173335,20.80709441825,96.17750196125,0.41096557725,13.4389951665,11.87948075,8.377209175175,-20.86578175,-45.7865945,-27.7293359165,-90.7442783335,0.0132
3,5.25,-75.53450591625,-39.301192685,-3.6467408344,-0.11007355365,389.30999858,0.00043432945,0.318442890775,0.039962330625,7.695422717675,21.38835358175,96.20637155225,0.531742396,13.32506849825,11.70248350175,8.236902983175,-21.02321858175,-45.40688175,-27.43981358175,-92.4755841665,0.01241925
3,5.75,-71.702516623,-9.2787177826,-2.7548626409,-0.084202785875,390.8216050825,0.011973172075,0.216168566975,0.0540443027,7.428844742675,21.78241925175,96.21726192675,0.50300343175,13.2751500835,11.57723992,8.120367307325,-20.49044825,-45.08732017,-27.0002463335,-88.3836915835,0.169240318175
3,6.25,-67.4639475145,-24.978856344,-4.438815450125,-0.098022868425,394.04290641,0.670953367625,0.440311740825,0.044094478675,7.010301942325,24.46507125175,96.26082327525,0.52478938875,13.10444825175,11.44540092,7.9895619925,-19.78426325175,-44.27720891825,-26.66687983,-85.8561459165,11.29251507675
3,6.75,-67.23041683675,-24.90834523775,-4.81270843145,-0.1405791452,390.965235205,2.052499128425,0.276511600175,0.04802254165,7.274207925175,24.27442817,96.27569818825,0.601315,12.99971658,11.30011983,7.908514125,-18.1025646665,-42.47945575175,-26.24230616825,-98.4410945175,60.5826934165
3,7.25,-59.8606084085,-12.7524237045,-7.910226259,-0.195102196,393.738100925,1.542095011225,0.11150709755,0.0568095704,7.644378283,25.23709233,96.3057948025,0.840245752,12.96860883175,11.20282966825,7.945604357675,-16.5217175835,-39.89623350175,-25.252573,-59.734021,92.13954999825
3,7.75,-27.39808717525,-4.3617066401,-9.6424853137,-0.115592095625,392.86363706,0.496319910675,0.265309588225,0.056795531775,8.288177342675,25.5316318335,96.36580264075,1.1893825555,12.8297348335,11.13288374825,7.969173025,-14.93592983175,-36.1506499165,-23.9527969165,32.25353071825,241.0695225
3,8.25,15.80864755725,-28.642956226,-10.08964015955,-0.175924646425,393.221400095,0.557105286925,0.286897113175,0.053983759525,9.684366467675,23.2271870835,96.37531603675,1.58969033525,12.7456225,11.06355108175,8.122367640675,-12.44201658,-31.43712516825,-22.39731125175,51.32112935175,310.3025058
3,8.75,29.386109058,20.88411619025,-11.416172004,-0.2251742331,394.0595567625,0.5761601766,0.40030937865,0.07712098105,10.35477766685,17.9900353315,96.3693544575,1.671763866,12.7058669985,11.03023283,8.62169444985,-9.76698153135,-25.1098280015,-19.26376633,65.254251967,289.352443315
3,9.25,16.24465282325,24.0191810655,-11.57951548875,-0.23337185815,393.98685198,0.579310314725,0.3870308861,0.083881985175,10.7008083,16.7363643315,96.36105587425,1.6304872515,12.6835760015,11.029945667,9.43526208315,-7.677474,-12.012619417,-15.093348333,83.519631,307.207049985
3,9.75,47.0559019775,30.849128168,-11.8868933165,-0.2155324764,394.689896625,0.4592526192,0.4343587434,0.10024304195,11.39038843425,15.48307417,96.37901694375,2.00629377,12.65583142,11.0578343335,10.23469985675,-6.244717399825,2.5323180494,-8.28866239165,112.933348585,331.540827
3,10.25,25.0659318785,33.355160992,-12.1577481325,-0.266304781475,394.1035591525,0.6139115335,0.517589640475,0.112220810175,11.8073980175,14.1209829165,96.36595099675,2.573309912,12.65190774825,11.18000074825,10.94824017,-4.985729883,7.220376442,-2.6160908564,114.87467400175,356.2344839825
3,10.75,46.608040109,26.86943998875,-11.998156469,-0.2703510603,392.23302264,0.70800094875,0.632467752225,0.1124783945,12.40790100175,11.6694428335,96.34983359725,2.87816568425,12.6813325835,11.3022091665,11.8415111825,-4.641765133,8.840838512325,1.47964200175,169.3407170675,625.606375835
3,11.25,57.30018811075,38.91273011325,-11.72552741175,-0.3059099388,392.32972963,0.848715604,0.7278929567,0.12771192115,12.4880691825,11.0821725915,96.31851809075,3.4307308975,12.70943792,11.48839025,13.02892243425,-3.340595925,16.4024755,5.492646475,137.3220644825,650.2248291825
3,11.75,51.53433740025,32.26752680775,-11.51870961325,-0.343858063125,391.849821795,0.85600568785,0.825040240025,0.170516285025,12.5628447325,14.64716824825,96.2930708825,3.65792105,12.75614858175,11.72456583,14.36249456925,-0.956480279075,13.06189825675,8.80617033175,100.76739090175,534.7157866825
3,12.25,26.9066390645,-9.19161409999999,-12.084013582,-0.3387520764,389.850312175,0.760828111075,1.341603887575,0.25531466515,11.9676789325,14.457379825,96.27706934425,3.3564411335,12.83311450175,12.0595775,16.193462,-0.561213282675,4.03640274,7.772196681925,78.90425575175,441.3240191825
3,12.75,26.51902603075,28.7515483,-12.6345726895,-0.38151793985,389.74254614,0.618877572425,1.31407939885,0.25141049305,12.0706065675,15.50354166825,96.27175917425,4.35487631625,12.86927041825,12.55067500175,17.51436083,-0.0916125185999999,1.794844275,4.301814675,82.75151280925,322.8557917
3,13.25,47.39126085375,40.0652594585,-12.43279764625,-0.344136541925,392.0163754125,0.90604670855,1.586214532775,0.29005127835,12.36604968575,15.25657416825,96.25923290075,5.059159865,13.05797817,13.2064784165,18.24498693075,0.504255739325,10.25705490675,3.4462350667,133.75792373425,580.3302191825
3,13.75,85.21729644525,35.38870196325,-11.8839792445,-0.35217505545,393.1317762525,0.8988080905,2.1636405896,0.3074440737,12.5891496825,14.8123971665,96.2500756965,4.96424306,13.28974258,13.92351033175,18.39561550175,1.2589566766,11.622674150175,8.40497028315,144.9984195175,739.7077917
3,14.25,76.05018026225,35.166065636,-10.7697802695,-0.32754841625,392.80929736,1.01802555515,2.37008399035,0.293091777725,13.06853267,14.8652414165,96.23511003325,5.1763209315,13.49359583,14.50538741825,18.66058756425,4.549702792,22.8387307085,13.92323363,158.924261165,719.9359324825
3,14.75,95.79189202375,28.354619425,-9.866293522575,-0.2994532704,392.335456115,0.6478111698,2.25906988265,0.2733586706,13.4972312325,14.84810875175,96.211591636,5.3486651,13.80341041825,15.07856483175,19.1621525,8.1545737833,26.3677145835,21.0220591685,174.45206155,665.0962849825
3,15.25,68.17710922925,20.4683567105,-9.365798907875,-0.3053156146,391.8506724275,0.5173866383,2.02866917695,0.2557571388,13.2002375675,15.92320100175,96.18887984425,5.0064189325,14.1123040835,15.66354633,19.16898208175,8.74394644985,21.72195700175,20.1269570015,96.15037325175,420.2920166825
3,15.75,46.7871500555,12.57983781625,-9.9994102875,-0.32883018115,392.6267714025,0.679717190125,1.632807396,0.244579992925,12.6870247325,15.99958099825,96.170827771,4.7614706375,14.41269633,16.09864467,18.8585235,7.05871829985,14.5343273,20.43339175175,74.6121741665,319.0464429825
3,16.25,23.135807656,9.4565180695,-7.7528580668,-0.2588278666,391.8548223675,0.9311860035,1.9497927063,0.23715552485,12.6094538175,16.46121225,96.17641896425,4.1030091275,14.6320089165,16.36129441825,18.36996458,4.724689617,5.7586312325,14.549476655,26.84515651825,298.68302
3,16.75,-6.8586898098,1.437656439,-5.073510902,-0.215836699,391.298105735,0.83155884525,1.21282981595,0.164304026725,12.2438936825,17.6979875,96.1774936855,3.434181824,14.7069194165,16.51886624825,17.7881123335,4.46895755915,-4.729714043925,5.7638183209,-25.25620485575,153.33573505
3,17.25,-20.5517821685,1.47307342875,-3.84943944575,-0.22345400825,389.44038919,1.092888259,0.627654360675,0.085808303875,11.64453240075,18.83047475,96.17336894375,0.896484772,14.88917558,16.5439273335,17.05106149825,0.86364069425,-10.726451558175,0.225863107425,-60.20506392,48.06703362
3,17.75,-48.48003422175,-20.903852133,-2.7238736909,-0.2167683838,390.26803858,0.89791358475,0.362649164525,0.0616566099,10.83165435675,19.7804984165,96.16913381475,1.98223079375,14.97261258,16.46899825,16.27785533,-5.119642665175,-22.50396308175,-5.785781602,-99.39119358175,10.599139015575
3,18.25,-64.3258635635,-29.041913227,-2.0125613021,-0.180867811725,390.609941355,0.0101586849,0.514827938225,0.065224330875,9.612351207675,20.91838616825,96.16254807675,1.58942365,15.02838625,16.35922508,15.55990617,-11.30973899825,-31.93741208175,-11.573237059925,-104.7582730675,0.14305308815
3,18.75,-50.3293539495,-10.4873203623,-0.48201577325,-0.1252297644,390.0127192275,0.0002165651,0.3936849781,0.070682787675,9.1649062425,23.29854375,96.18280558975,1.496913474,15.10192166825,16.23894925175,14.85847033,-15.63365000175,-36.1413011665,-15.6569745835,-102.6113062675,0.028433501325
3,19.25,-72.21490245325,-24.35114697,-5.71888758755,-0.135831997275,390.767958345,8.6578926e-05,0.319861497175,0.05969034595,9.4821015325,22.02280641825,96.20040945925,1.3328358895,15.1100725835,16.02105933175,14.21603974825,-17.592918,-39.7616691665,-18.49649749825,-99.59560866825,0.0252
3,19.75,-55.68387421575,-51.3535440615,-0.7145537318,-0.0765291877,386.27722491,0.00013099,0.44626571365,0.045192781,9.3792797675,20.49040825175,96.2049289935,1.19560192725,15.13465692,15.7931453335,13.6786193335,-18.20361542,-41.94270875,-20.55269233175,-99.33784016825,0.0185
3,20.25,-60.6374037395,-36.5614534775,-1.355661563375,-0.1133134788,391.2258850025,0.000289820875,0.358334693725,0.04945331585,8.881151925,22.26283108,96.2187040795,0.93853695125,15.09280583175,15.56879475175,13.3398416665,-19.3888600835,-43.3640970835,-21.43819241825,-97.45168843575,0.015835
3,20.75,-53.198259981,-28.915488782,-2.839395682125,-0.12909142565,390.499105525,0.00040881675,0.3594031998,0.0410859865,8.419124541825,25.15988941825,96.200260044,0.8338855575,15.01539249825,15.31199400175,12.83796224825,-19.89364075,-44.52366558175,-23.31750074825,-97.5058487325,0.014163
3,21.25,-65.01375273975,-11.206051087725,-0.6219693776,-0.1303039405,389.66758235,0.0002223541,0.41291184125,0.05192265115,8.670121574825,24.15023192,96.198546341,0.738806352,15.0061924165,15.0415801665,12.36786856425,-20.4391965835,-45.40915274825,-24.55876533175,-97.04875534925,0.0059276365
3,21.75,-56.68246446675,-28.0615839725,-5.44202967125,-0.0989826442,387.56221551,0.00032468575,0.311569807825,0.0563085629,8.458470257675,23.66788450175,96.201768588,0.7753289175,14.95744624825,14.78189524825,12.04157393575,-21.81734292,-46.32169525175,-25.37245183,-96.42259691825,0.0172
3,22.25,-62.22816803125,-45.70444097875,-2.899623896,-0.1208948744,390.143652895,0.000281143,0.26624219705,0.050125987475,7.982447175675,20.78555658,96.19383460375,0.7085894125,14.86978933,14.547236,11.70337281925,-21.13347583,-46.36098808,-26.0542803335,-93.18337824825,0.0112175
3,22.75,-54.83445484375,-21.973468702,-5.0207934435,-0.124287856725,389.9475601025,0.00026949825,0.363044114925,0.066576304,7.98095524165,18.81338233175,96.194580235,0.6414210395,14.7054179165,14.37830783,11.34409699825,-21.2208609165,-46.28194925,-26.47072583,-91.62356775175,0.011092995675
3,23.25,-62.8711863225,-38.0798899875,-4.2419643475,-0.127668727675,392.5225493875,0.000323008875,0.32321737855,0.060183082475,7.955551082325,18.36829016825,96.1724297305,0.6155835355,14.69252667,14.16188491825,11.0402991825,-21.35209808175,-46.32268842,-26.73469916825,-88.01756600175,0.007477
3,23.75,-55.717776591,-27.33081862275,-5.353089755375,-0.15407824755,393.13816818,0.000118071375,0.48274881735,0.058616136325,7.386500565,17.92451300175,96.151800065,0.58150193625,14.63166475175,13.95461433,10.79971368075,-21.59759883175,-46.37415158175,-26.91998800175,-88.18217692,0.01303675
4,0.25,-72.69194232,-44.449592383,-4.67135024775,-0.138638767375,387.5158783025,0.000201500075,0.2945943767,0.0541179076,8.897046449325,20.59926808175,96.1612356515,1.2956489835,18.97220034925,18.07509408175,14.59778231425,-20.6299643335,-48.90641558,-26.66401125175,-91.67311683175,0.008577
4,0.75,-79.67853908075,-30.11742347525,-1.5846221902,-0.15673715415,388.90124268,0.000155098625,0.3884957554,0.063922170875,8.545057634325,19.92264041825,96.1402991245,1.01173076,18.85894275,17.8164155175,14.2814362325,-20.8757205,-48.6872228335,-26.93354117,-96.09597608175,0.0185
4,1.25,-76.624352811,-9.8484418599,-0.5827624636,-0.0918177386,387.7758005575,8.113e-05,0.47152242055,0.054690960225,8.678202275,22.04113858175,96.14800697775,1.024435358,18.71254258175,17.60292341825,13.96971393575,-20.6774195835,-48.67246150175,-26.9953020835,-90.66401325175,0.0212
4,1.75,-88.22920135375,-52.84147305,-3.7147117618,-0.1896454399,389.777745665,0.00022135015,0.411918529625,0.0656807842,8.965302884325,16.0459035,96.15815321275,1.2110867445,18.5971965175,17.39953309925,13.71473590075,-20.46501733175,-48.76075958,-26.94905742,-92.40160300175,0.015682843
4,2.25,-75.7024435715,-14.29449105175,-4.1729738729,-0.264758039675,388.371495495,0.00034462145,0.387875551425,0.04669216735,8.690185325675,16.35899116825,96.1477441145,0.981421088,18.4582349825,17.15844666825,13.4240314825,-20.33280175175,-48.80189325175,-26.81944975175,-91.93628725175,0.015835
4,2.75,-77.74785680125,-11.880285491,-2.7070639942,-0.08931429555,387.07321313,0.0002387259,0.405804231225,0.060311887375,8.59696425,16.58627916825,96.13383236125,1.177224407,18.30364231425,16.97650134925,13.15731709925,-20.4543118335,-48.9230575835,-26.64744391825,-93.59552808175,0.01365425
4,3.25,-94.2022300705,-29.5905529865,-10.8392903557,-0.2490424941,387.613964245,0.00024239925,0.208757624925,0.05733635115,8.030531375175,16.83129866825,96.13623561325,1.015650765,18.2117085,16.76343441825,12.95139684925,-20.41947641825,-48.7411934165,-26.67869225175,-98.5262149825,0.013865
4,3.75,-55.435974482,-18.15896189225,-5.0459705101,-0.0797038313,386.592236485,0.0003484005,0.265165450375,0.049805221575,7.7613459,19.84526549825,96.138419041,0.891069549,18.1347930175,16.55224481425,12.7044022675,-20.22075724825,-47.27376308175,-26.12252649825,-95.06139441825,0.010394752325
4,4.25,-81.67008453525,-14.2609614115,-9.424174102475,-0.08494752855,380.8207774275,0.0006024968,0.372187720875,0.0494064209,7.614160025,18.27260567,96.1455441215,0.74111851,17.94989625,16.40224415075,12.45293658175,-20.28966742,-47.39029817,-26.04794550175,-89.81603891825,0.015835
4,4.75,-92.44073741675,-31.375800372,-2.5258719224,-0.08538278345,384.70692164,0.0005585058,0.25936756165,0.0579545835,7.712542032325,18.70785049825,96.12934937975,0.66673504,17.81638065075,16.17806675,12.2452405,-20.42039349825,-48.17929350175,-26.07108591825,-90.1933071665,0.0163825
4,5.25,-71.5072410605,-5.3791625195,-7.761888106625,-0.08235403445,385.3252035025,0.032511086825,0.416397293,0.04971142885,8.0410534075,19.56066292,96.14487839225,0.725533348,17.72196359925,16.0123422675,12.0612594825,-20.41539000175,-47.97049308,-26.1586469165,-84.78893908,0.695533732
4,5.75,-62.385793381,-11.440755182625,-1.928371013375,-0.0862708647,385.654511105,0.879926613525,0.307358311325,0.052137140025,8.15367126665,21.3771070835,96.1606804855,0.929805081,17.57373556425,15.8546625175,11.86324683175,-19.899949,-47.60437683,-26.0199613335,-74.97764416825,16.9621670585
4,6.25,-65.319536929,-11.1606546245,-7.6042332072,-0.0682948585,388.860011705,1.4555070095,0.225072815225,0.0514829806,7.49998069165,22.78010858,96.198220422,0.92708884975,17.46601883175,15.67839081425,11.7423047675,-19.0727793335,-46.10198741825,-25.70751008175,-49.3365109835,67.59392366825
4,6.75,-33.54220376725,-2.3593091076,-8.5513727509,-0.111836893875,392.27380937,1.157668071175,0.123000524775,0.058999863,8.447688549825,22.0101624165,96.211321322,1.0201457,17.4052129825,15.50621606425,11.67962459925,-16.92190383175,-43.25686125,-24.78783166825,-24.5966071665,126.304062165
4,7.25,-9.40792077795,-2.2696577955,-10.647545320575,-0.211827184275,389.5599044825,0.66262706795,0.09475921075,0.075103016225,9.880099099825,20.42513250175,96.2237874525,1.6147081795,17.234059,15.361865,11.73368608175,-14.14468708175,-38.27308883175,-23.20702617,24.6152355265,194.40450325
4,7.75,5.589233160475,16.48831578075,-9.19917145075,-0.3444101626,389.1750509025,0.651025875725,0.22557124025,0.06884418995,10.6874992175,14.35639324825,96.21710544625,0.860322737250001,17.0997870175,15.22388840075,11.93264775,-11.66328433175,-32.8812560835,-20.81780467,51.71784942,255.82752
4,8.25,9.858593194825,27.4502207505,-10.6420524225,-0.394140442675,389.233371735,0.6605509593,0.193405433075,0.078725108225,11.62858333,13.34921408175,96.217405878,3.513278122,17.03390675,15.13017918575,12.3387219825,-9.588358567,-27.28179358175,-17.70604124825,42.61424183,259.1734725175
4,8.75,40.540171552,30.345663654,-11.690935299,-0.4302985037,388.298288375,1.086367609375,0.498796137,0.1074426367,12.91473333,12.724361167,96.200960189,4.41189675375,16.957711,15.071080315,12.8613414985,-8.147160567,-21.1856575,-14.916600167,172.9695142,626.248155015
4,9.25,22.137280093575,25.71718031375,-10.510373312,-0.4264116739,387.135721705,1.0506159618,0.356255484075,0.11608795355,13.5597888,11.900883405,96.20493601275,5.4704659845,16.89370518575,15.0897587675,13.63443018575,-6.510983383,-10.153719548925,-10.95418798,76.15369885825,460.7748850175
4,9.75,72.4217737185,29.6497126135,-12.671649189,-0.474469801675,387.3167687775,0.84470469795,0.5054555974,0.133285907,14.2883492675,11.1383805665,96.21998754025,5.7102259945,16.82277781425,15.1393815,14.50247333175,-5.605418274825,-1.25374409865,-7.718734175,219.7639711825,809.4659633175
4,10.25,88.22907777925,26.70014684,-13.52373232925,-0.3613266482,386.77981795,1.0201288296,0.57442355375,0.14560928145,14.2539312,10.420278581575,96.218319439,6.325258363,16.80944584925,15.21480358175,15.33595290075,-4.622808508175,15.83106098675,-5.13224121665,247.4453564325,980.8784368425
4,10.75,112.419349885,-6.80424097849999,-13.5237849665,-0.3812997794,389.387004275,1.2056699878,0.767384762425,0.22137531295,14.8731248175,10.1978165,96.199318877,6.893671424,16.80149934925,15.39053658175,16.96642525,-3.14539483335,30.7573598335,-1.323995210275,223.880400625,900.563421665
4,11.25,117.82053248,40.80942976075,-12.41663703475,-0.3998389048,390.7913143975,1.02587798825,1.18186872965,0.19643388915,15.0122441825,10.5649704415,96.16665120425,6.9589387025,16.80005040075,15.6438337325,19.4878704825,-1.58614429585,32.12340449825,1.035894198575,210.316670185,885.7290283
4,11.75,78.6699616375,27.90266265,-13.0327937895,-0.44401293255,390.494346845,1.1109657916,1.83447244585,0.27429287845,15.051908485,10.2026996685,96.1200360765,7.652051606,16.821116185,16.0012665015,21.148346,0.2285901988,31.46692733,3.31628708315,157.54796883,670.69049167
4,12.25,93.7708605,31.4650507195,-13.3516095,-0.44502991965,390.091397055,0.8737567482,2.2012637366,0.29471268675,15.2656729325,10.17685328175,96.106701237,8.131150187,16.95115809925,16.55281508175,22.21712325,1.527098900675,26.43927492,6.775192817325,127.89038660575,769.7659083175
4,12.75,77.9381799925,29.6460004475,-12.4275733095,-0.4349150909,390.3474587925,0.9528942002,2.16894733475,0.275922350175,15.8190865175,10.119580000175,96.10224947875,8.626534191,17.09907908175,17.3003779825,22.3289318,3.847457187675,26.62202783,10.56833094325,184.77352355,738.5516050175
4,13.25,98.4230832225,31.386775185,-12.44145863825,-0.4027741494,390.5387403275,1.0059509591,2.0019689258,0.260510858775,15.3092139825,10.475902993425,96.0932688975,9.813830954,17.38226809925,18.17590925,22.4952935675,4.1230732,23.92254808,10.5570655515,192.61567956,720.441124165
4,13.75,60.63658874325,17.630642954,-11.3685277025,-0.393170234575,390.9315448225,0.5439823625,2.279401331675,0.256475781275,15.0838467,10.303661618425,96.078774955,9.80758962625,17.68585909925,18.9507765,22.65161855,4.197326483175,21.686898,10.26310238315,104.2514687675,534.6347750175
4,14.25,31.12102868225,21.7464566375,-11.4221412335,-0.411927477325,391.2897840175,0.6534827902,1.9360908181,0.254017678925,15.0888778175,10.178370299825,96.0661234575,9.303707048,18.0510957675,19.44661505,22.5245422325,4.253132783,14.2216831585,9.67821093315,78.5934870675,456.7978775
4,14.75,27.84765820125,-21.669300168,-10.517215778,-0.4749758428,391.2310927125,0.8280408545,2.18694116815,0.2739439937,14.472579335,10.139328456925,96.046325923,8.68869985,18.40771356425,19.8934444825,22.6504355175,3.8548655333,8.9722092,8.890557083,62.81311479175,353.3906666825
4,15.25,40.03313855075,-20.934699165125,-10.546077,-0.3920722795,391.1547114125,1.592553546,2.056298987175,0.21103730455,14.034110915,10.34281948,96.0338239855,6.810407506,18.77629883175,20.2515827675,22.7747664825,2.368136625175,3.0873572751,6.54832879985,65.95846088425,300.345109165
4,15.75,30.0711896005,11.356020722,-8.568469044875,-0.45051726165,390.463831185,1.3140149285,2.2164358392,0.2693894964,14.287613415,10.52002263175,96.036851541,7.594982265,19.0820100675,20.470776665,22.55705855,1.573764797325,0.129492166650001,3.668029474825,50.57951900175,243.4372575175
4,16.25,30.1804527145,4.5487531848,-8.4302634837,-0.3180486376,390.5206341075,1.6510014806,1.56300874565,0.171681121875,14.5029367,10.94570072,96.04537846525,6.882436588,19.2863559325,20.6122938,22.1775562325,1.5044396251,0.272509839,3.982050867,52.41452154425,393.913258335
4,16.75,7.8899985795,6.017257108475,-6.87991642795,-0.298835609925,391.7076498675,1.0528322697,1.178142241325,0.147815863125,14.56732275,11.0120789165,96.04034014575,5.914041953,19.498207415,20.6921688175,21.9931145,1.461544803175,-3.00887527865,3.115447575,5.29417243175,163.47759755
4,17.25,-4.312665715825,-41.599035696,-5.7039593676,-0.240093199675,392.2603412275,2.1732407462,0.905327897825,0.17061180555,14.2252205,11.91613206825,96.033946955,2.592703846,19.6707204325,20.727856085,21.5405973175,0.150468169325,-9.505315668575,0.231679347175,-36.544263205,99.17962675175
4,17.75,-14.75400862575,-37.039353942,-6.492445867775,-0.155317895475,391.51078206,1.8380745846,0.65220150405,0.14096497505,13.2623871825,14.2609341665,96.05061879575,2.13907363925,19.8365235175,20.6998983,21.0202190175,-0.8032345218,-15.3219605915,-2.657027183,-85.00359392,26.6761072585
4,18.25,-39.28555672,-6.8580529583,-1.5780362252,-0.106849558875,388.69346956,0.175806864375,0.51594932315,0.060152379875,12.11662856575,16.5259019165,96.07492029925,2.68341152,19.8844252,20.60878155,20.403142165,-2.384271492,-22.25242408,-5.551764499825,-112.407591665,3.047450313675
4,18.75,-43.63850894725,-59.14879891075,-1.46190471615,-0.108499310775,387.03733806,0.001292254625,0.53123232785,0.070657364675,11.63605993075,17.33327125175,96.0859527775,1.978441496,19.9933806825,20.55765205,19.793111585,-7.218206358,-31.79706733,-9.812562934925,-113.848001665,0.0492875
4,19.25,-41.78651479175,-32.069035328,-1.38736764525,-0.08879526685,386.4423403675,0.000680276,0.419220124125,0.04309268775,11.55986775,19.6679969165,96.11496884925,1.6670558885,20.1025942675,20.4217419825,19.4051942,-12.0859098335,-37.2775661665,-13.65197708175,-108.54409105,0.0284175
4,19.75,-58.18750498425,-37.204458577,-0.468625107025,-0.101810129425,385.2167001125,0.0004294415,0.335711429375,0.046469734725,11.15085493075,18.53695158,96.159571266,1.53958415625,20.1331933,20.3008349325,19.06783275,-14.83211942,-41.3497985,-17.11790625175,-106.9552150675,0.017
4,20.25,-52.469511617,-40.81876940375,-2.73248151795,-0.077650421325,383.683728755,0.00016112525,0.3660786432,0.050071465025,10.71698893075,17.94378333,96.17860258875,1.51941111475,20.1337795675,20.11342055,18.7076526825,-16.92192675175,-43.88599999825,-19.50151292,-104.113253,0.0151
4,20.75,-46.117336829,-27.369302374,-1.93468343965,-0.07913708205,382.9518279975,0.000367387,0.4402500212,0.064604650425,10.47903627675,18.4135208335,96.1949711015,1.521314604,20.107013665,19.9381711825,18.3091344825,-18.31402775175,-45.6916676665,-21.01308474825,-100.8501459825,0.0199
4,21.25,-68.77757711575,-42.40996319925,-1.2305587068,-0.100286294475,385.8805084,0.000148663,0.154609372725,0.046453141775,10.2593546675,17.89508708175,96.18615467125,1.32666700875,20.0350722325,19.7531514825,17.927982665,-19.35570217,-47.1447291665,-22.53533458175,-100.2008367325,0.00787875
4,21.75,-55.37611063,-49.62510382875,-3.599750526325,-0.079901527975,389.0208349925,0.000200567625,0.352903657825,0.06472023315,10.3158251665,17.4246888335,96.19656337075,1.3917512475,19.9045768,19.55520995,17.53468275,-19.9656696665,-48.26320583,-23.68647716825,-97.86758066825,0.0064875
4,22.25,-62.4385425975,-15.0736458975,-1.535693709475,-0.08663364595,386.783143905,0.0001083676,0.2209593156,0.055178679475,10.1152172085,18.40584083,96.17392403375,1.283849674,19.874916835,19.3480155675,17.156793085,-20.0712404165,-48.99193599825,-24.42545599825,-97.8480735,0.00725175
4,22.75,-69.202076107,-40.434101142,-4.15506215615,-0.11364226665,386.12522957,0.0002791146,0.30594243535,0.052981447775,9.9139540825,18.58722724825,96.16419088825,1.214044094,19.817286585,19.164634335,16.7780315675,-20.20423724825,-49.3799564165,-24.79235625175,-96.0150355835,0.00795
4,23.25,-68.13931871575,-32.648277241,-5.74395862805,-0.1832860734,385.18900069,0.0001590168,0.426763781475,0.062032965375,9.684204825175,18.1359525,96.165210863,1.200857446,19.6961524325,18.9815984825,16.463598335,-20.26381292,-49.33696399825,-25.5145573335,-95.1332388335,0.0112175
4,23.75,-51.3306940575,-23.3550552895,-3.5742889768,-0.13678981695,385.56814591,0.00039795115,0.249487925025,0.05941087445,9.533982499825,20.39377625,96.166385704,1.3716496515,19.533983665,18.8130339325,16.242245665,-20.0922463335,-49.22055924825,-26.11753566825,-90.31003099825,0.011786002325
5,0.25,-40.2403661695,-22.821789824,-1.06748632525,-0.101170052425,373.41851525,0.00033056765,0.27763245855,0.05513493775,9.3659931,26.09428024825,96.18615136125,0.411960561,20.66527058,18.95032241825,15.28309268075,-20.85947149825,-47.79337467,-24.77756825,-82.6353585,0.013220228825
5,0.75,-37.763411409,-25.13449685125,-4.2867697856,-0.0943067773,379.824653165,0.00013927865,0.16690477645,0.044102573275,9.333158625,25.98654733,96.1785565235,0.3574997875,20.6064318335,18.84157650175,15.12397725175,-20.82867025,-48.09316058175,-25.3334478335,-83.09843924825,0.01180175
5,1.25,-37.05919604225,-18.85648112675,-2.00547403375,-0.08214213735,381.11075142,0.00012392875,0.334209682575,0.064254713475,9.65247938335,26.14149474825,96.168662074,0.347050705,20.47598675175,18.7131925835,14.98602024825,-20.68325633175,-48.34435333,-25.7592254165,-81.34856592,0.008576911175
5,1.75,-39.5097157785,-10.977100644,-0.1417719284,-0.081093002225,380.7700541125,0.0003330108,0.368576420625,0.04329592025,9.294194032325,24.89466025175,96.15494919125,0.358835192,20.32398950175,18.5780955835,14.84999150175,-20.68903683,-48.38785025175,-26.13000499825,-80.52652417,0.007878658325
5,2.25,-41.85140086375,-7.81264192825,-7.46212496065,-0.07759801105,379.010905635,7.710358825e-05,0.222133193225,0.052687660275,9.5163074325,25.14547892,96.150014618,0.34742843625,20.27906499825,18.4242885,14.66789949825,-20.25908817,-47.5082648335,-25.92804774825,-81.79564283175,0.0132
5,2.75,-31.67081038775,-16.20189858365,-1.02692665085,-0.068107020325,381.994919865,0.0002670276,0.4223392385,0.0555178857,9.420580440675,26.36280508,96.15520287,0.338245654,20.18884683175,18.27965516825,14.5126325675,-20.33422666825,-47.33147308,-25.5161460835,-82.36861467,0.0125175
5,3.25,-50.336468731,-10.0903207755,-3.1999148164,-0.106556058075,383.23551057,0.000496498,0.296820578875,0.0549634295,8.9929133825,26.74113225175,96.1509257275,0.332429968,20.0963584165,18.10593049825,14.48573868075,-20.7140760835,-47.2397848335,-25.966773,-86.3183848335,0.0112175
5,3.75,-73.9427885215,-9.5968962369,-6.630442664425,-0.07799165975,383.24665265,0.000438608625,0.288217966925,0.0509943867,9.05370606,27.08351149825,96.1503284475,0.3319936275,19.98849125,17.9911016665,14.41088768075,-20.64073024825,-47.58979675,-26.84723742,-81.98331325175,0.0132
5,4.25,-56.542792985,-12.100056994,-6.2194838766,-0.1142452581,383.707494355,0.0001450193,0.216285894625,0.054042903875,9.212739599325,24.20134850175,96.15720746175,0.33223436475,19.95277941825,17.89322367,14.19623068425,-21.00031508175,-48.22712067,-27.12544624825,-79.79217816825,0.0230814275
5,4.75,-54.922933457,-26.8979314355,-2.22689397,-0.122688383925,384.1108872,0.04026430965,0.307295311825,0.055718031025,9.426127732325,23.00833308175,96.164648425,0.3258984535,19.762127,17.77295891825,14.0432099325,-20.49077808175,-47.9790928335,-27.1593333335,-79.29570700175,0.611178574
5,5.25,-38.5219119365,-11.037851844,-3.6602455474,-0.181870680975,381.18566247,0.59357724935,0.29245264655,0.048818532875,9.025968959325,22.36165474825,96.19261243625,0.32040181075,19.68992775,17.64575316825,13.8166803175,-20.11234458175,-47.6565345,-27.03581008175,-70.1562255,9.231804442
5,5.75,-46.2518819825,-60.603944476,-8.923109215875,-0.162819727425,381.853754025,2.489963561025,0.214058669425,0.0530779527,9.534865149825,23.4566521665,96.20861607375,0.32084662775,19.65028850175,17.5261086665,13.68827843425,-18.8111880835,-45.0721706665,-26.2853428335,-60.5453160835,27.89435676825
5,6.25,-15.817411183,-38.295436134,-5.649187233625,-0.105058798475,383.9796036025,1.7227533354,0.187990524775,0.0641619043,10.04031232325,26.78963117,96.24172024525,0.3218567095,19.52372391825,17.43058349825,13.64405256925,-16.55565033,-41.7126388335,-25.17187975,-4.528969017675,53.60761883
5,6.75,-3.898378263825,-9.2062554459,-10.030728726625,-0.111159913525,387.964650155,1.4951055895,0.10521574785,0.065679499725,10.14848415,27.904476,96.26256352475,0.33900240125,19.40517616825,17.36377099825,13.70628581925,-13.75366633175,-37.90728075175,-22.9169511665,4.59797750725,83.27112125175
5,7.25,-7.692102478,-5.288396856375,-11.30179650665,-0.16605394175,388.45285679,1.56383440475,0.18694844145,0.09791851165,10.56175636685,23.14798767,96.271113169,0.34892318,19.3496064985,17.2435838315,13.9761401535,-11.75049123,-32.8812295,-20.7627048315,17.865429567,130.555391685
5,7.75,20.46707398225,-10.920313653375,-8.4278331891,-0.2343603147,391.06322786,1.764203750075,0.40579608925,0.102619815975,10.84983115,15.71205950175,96.26961052925,0.4022855475,19.24276575175,17.19022842,14.3255710675,-10.209012934925,-26.45203967,-17.9183930835,28.13194733,157.4856041825
5,8.25,19.1390577685,-6.18667890815,-7.8320021974,-0.23368406455,391.39312675,1.698442822375,0.516004678675,0.109662823875,11.36901749825,15.28288100175,96.275516628,1.268367428,19.19675850175,17.18059133,14.72525331575,-8.181086716825,-20.83336099825,-14.92983467,34.88942692,184.7146792
5,8.75,23.807025316,12.928800018,-9.809397704525,-0.26325929585,391.418664225,1.2819966009,0.361955630175,0.083130793325,11.70798758,13.61157408175,96.271248278,1.302913041,19.12569591825,17.18838208,15.4282515675,-6.918331091825,-16.33904500175,-12.28348433,28.67083215675,214.7148408175
5,9.25,26.0103578095,-36.604843798375,-10.0142716805,-0.34145833105,389.00064226,1.6755930924,0.7373328604,0.15901789505,11.71250056425,12.71193858,96.2626255165,0.998590602,19.1074254165,17.2202336665,16.17628175,-6.300560583175,-13.81191875175,-11.3058104165,59.5124286685,283.323485
5,9.75,17.47787643325,11.4934357752,-10.872722224,-0.3599644302,388.51250972,1.7867066318,1.04072910495,0.17524485595,12.17281124825,11.21918152675,96.256210947,0.93403218175,19.11851033,17.29165291825,16.89782750175,-5.652852208,-10.236175216825,-8.791978341825,79.4191029985,302.364415
5,10.25,50.11354191925,19.209039982,-9.241089981825,-0.395497793775,387.699464205,1.653085299875,1.045952934925,0.188879808525,12.05061092,12.89233029325,96.23823613275,0.849413591,19.1879976665,17.42433683175,18.09237641825,-5.651820174825,-6.464543575175,-7.403832650175,89.4854846825,354.6465358
5,10.75,46.639704795,22.52202225,-10.9576242575,-0.41718326115,388.508336105,1.762793034075,1.209275283675,0.19720001065,12.08198541825,15.61475624825,96.22898981175,1.05133921975,19.21393049825,17.59177108,18.82233158,-3.741438808175,-2.530805342,-4.8077707,108.18335768075,410.050669165
5,11.25,56.240030412,18.74496388,-9.6557103983,-0.4154362736,388.9453674675,1.875539117875,1.970988753775,0.26891183765,12.65707683175,15.4590539165,96.216125841,1.245923246,19.37856517,17.88347641825,20.3782336665,-1.232530496,-0.255365404325,-2.431394474825,118.4197581475,400.506709685
5,11.75,78.979598805,16.201765564,-10.0347638109,-0.4178974144,389.293092345,1.845683568375,1.8212777308,0.2284961945,13.12912858,17.40937341825,96.18196536825,1.8569314795,19.48939224825,18.080236,21.12858625,0.70140492025,4.887628067,0.0261302874,127.6581783,446.765155
5,12.25,55.3315105005,15.69480693325,-9.1639358335,-0.4456357514,390.3030098525,1.94248789635,2.134740244275,0.293989401875,12.9153259165,21.5128184165,96.1817702425,1.86552304675,19.64515167,18.43556075175,21.32302781575,0.9128394705,3.71946204225,0.908338053175,88.94931642,341.018881665
5,12.75,59.5772255255,14.307963728,-10.05708116505,-0.4493131956,389.98112299,1.909656098625,2.1053405988,0.31510848425,13.03351043075,24.7691574165,96.1972778085,1.46640190025,19.72938683,18.91991283175,21.44119781925,0.502948583175,1.857963335675,0.303835021325,70.5839838335,319.3171625
5,13.25,42.444103591,16.20819132825,-9.6875525286,-0.390490067375,390.16150632,2.277391132225,1.908719981575,0.279012004375,13.25374250175,28.05652741825,96.18237397275,0.903554694,19.80524858,19.49255099825,21.81330318425,-0.153089975425,-2.030235187,-0.42825661935,59.9896654985,286.5976017
5,13.75,34.943349034,7.520474953,-9.77361251695,-0.412782332,389.435192155,2.17381457845,1.943240359,0.241852617175,13.34464500175,26.8557765835,96.15434153675,1.299906981,19.97253441825,20.03574824825,22.32790225175,-1.49396478425,-9.249480843925,-2.40705825985,46.7578101915,238.43589705
5,14.25,40.6288785135,10.2273109674,-9.199162450125,-0.4296398146,389.62809565,2.378400852,1.73673201915,0.2766580544,12.96098318425,25.92658992,96.1305121055,2.093313477,20.23827550175,20.40350143075,22.5368744325,-2.24105088225,-14.87814700175,-4.95835440315,64.5956688425,280.3663633
5,14.75,29.25598345225,9.9009377772,-8.704199597275,-0.419615079775,388.993192765,2.240447487675,2.2204564153,0.2602674574,11.9079730835,25.7868166665,96.1063097525,1.716108663,20.39646925,20.79943024825,22.98181731925,-2.752632225,-10.711819427425,-4.229152617,34.08966087675,255.1998524825
5,15.25,24.246731618,8.0682632994,-8.820668247525,-0.41370543045,388.540418215,2.202853958225,1.607315144025,0.258105695175,11.45015867325,23.4854555835,96.07933762125,1.658003241,20.66212050175,21.1154275835,22.84078483175,-6.238662217,-15.857235141825,-4.87491046685,33.18951683175,223.1628849825
5,15.75,9.734516699625,1.9903571542,-7.87744385925,-0.38307547515,388.62021717,2.0897489688,1.729387496325,0.205469794975,11.513598842675,21.4131231685,96.071187276,0.8458129915,20.85681541825,21.2339470835,22.24999800175,-7.614383658,-20.44652208175,-5.798950973,26.71506862,205.12937555
5,16.25,2.953646229725,5.5942151772,-7.614949462175,-0.345482333475,388.17136648,1.8617245582,1.68389389115,0.221164403675,10.915969131925,21.63498174825,96.07342676825,1.597518466,20.97724525175,21.29459400175,21.37454400175,-8.63947296865,-22.70679808175,-8.03118475015,7.42507761825,123.4322912675
5,16.75,15.059121445,-4.6820126736,-6.84419772365,-0.283828362025,387.34496871,2.0732167639,1.77242330315,0.2110793967,11.022935850175,21.67464358,96.0867688215,1.48920725,21.1396483335,21.22510858,20.5720700835,-9.453504633175,-24.56598941825,-9.861910515075,4.6575609475,94.22534806925
5,17.25,-6.9934308928,-2.309895463775,-4.653850723725,-0.2851243666,386.778928935,2.401826147825,1.638086925625,0.212831759575,10.942784718075,23.67279842,96.084548963,1.481762342,21.25761908,21.16221841825,19.82169975175,-10.291952683175,-26.2867235,-11.35939991825,-15.647254645,57.75698625175
5,17.75,-9.61483393035,-5.027111071675,-3.43150179735,-0.247119753975,384.58771247,2.402277879,1.2934552286,0.219084663725,10.429546431925,27.69534392,96.09889037075,1.05416129475,21.28931558,21.01797825,19.2203814165,-11.425374875,-29.18584267,-13.24247775175,-58.85967083,35.00222092
5,18.25,-17.07213569525,-14.5534381855,-1.4327978899,-0.22143936665,380.87817509,1.22534140825,0.90358497945,0.150662010325,10.286818968425,33.90904399825,96.13452928475,1.28867073975,21.29959567,20.9148578335,18.67117467,-12.89841466825,-31.37656316825,-14.91266499825,-96.5200178335,11.931308275
5,18.75,-29.88812528875,-10.783462049575,-0.52200452965,-0.177282031775,377.800471085,0.07539080945,0.7703802346,0.088643693375,10.15695314325,35.5326433335,96.150115454,1.071389915,21.3613115,20.74287324825,18.17190633175,-14.81492524825,-35.01622075175,-16.28075,-105.05832625,0.6371010125
5,19.25,-39.247019259,-9.051736252475,-0.38439720895,-0.142805414025,378.853157505,0.000516474825,0.469848709475,0.049174272,10.200123218425,34.17160825,96.1622389315,0.957750805,21.38802258,20.5562371665,17.78770408175,-17.85969475,-38.30399333,-17.91866425,-102.4284144325,0.0210080745
5,19.75,-42.29424325925,-19.71742626125,-1.742791692,-0.125327419975,379.342310745,0.00015981385,0.2558136497,0.059298786975,10.129842606575,31.90809200175,96.18535744625,0.811940439,21.3875798335,20.39784775175,17.41509425175,-19.16955942,-41.61326558,-19.19901774825,-95.51495308175,0.0111569945
5,20.25,-37.46307821775,-27.8565131095,-3.8006547299,-0.087367221925,380.60524984,9.8e-05,0.32165558615,0.04334051125,9.929814174825,33.39354542,96.1952156075,0.6740118505,21.3646336665,20.1911946665,17.05634442,-20.14990442,-43.58768133175,-20.75133683,-93.26709283175,0.017795323825
5,20.75,-31.85657915475,-17.395976786,-2.76946961575,-0.0907904075,379.776057755,0.00019525545,0.0804911107,0.055903988925,9.820687843075,36.34659324825,96.2118256385,0.584806789,21.2495145835,20.05749925,16.77355725175,-20.80935092,-45.3265904165,-22.10603466825,-93.136179,0.0205175
5,21.25,-37.230458411,-8.27700776665,-1.89966052775,-0.10741172425,379.8444782925,0.00071009915,0.3742932872,0.045282934825,9.494259267,37.3682648335,96.21629362025,0.533516228,21.15644783175,19.8650860835,16.51989424825,-21.37495225,-46.80849292,-23.0141735835,-86.9004206665,0.0116455
5,21.75,-40.38340698925,-31.64602708,-1.59680021075,-0.121982864475,378.94082423,0.0002186895,0.43436249315,0.0412953942,9.36160344165,35.10800325175,96.21602418175,0.5214535805,21.08745325,19.71932225,16.34609674825,-21.7344333335,-47.5701501665,-23.48643258175,-86.4690841665,0.01172625
5,22.25,-42.81500024125,-10.712389336375,-0.98120751075,-0.1126221558,373.1279562575,0.0002682174,0.327591998225,0.0551260862,9.1933187,34.0446149165,96.22356948075,0.51459673275,21.0824483335,19.55312891825,16.12595817,-21.21048975,-47.00288841825,-24.41562983175,-86.38575983175,0.0125
5,22.75,-31.34525075575,-16.4939613776,-1.8952903998,-0.102797246325,380.1151738,6.97899498e-05,0.238781799875,0.0566426486,9.247000333175,32.62203925,96.24065340375,0.5184801315,20.94436508,19.38565292,15.95042716825,-20.96663600175,-47.20514733,-24.55910766825,-85.49925875,0.016453884675
5,23.25,-32.809049233,-61.95902398,-1.12878445625,-0.1013750061,370.92870531,0.00013417675,0.41071383965,0.051867928425,9.46446396665,29.7762568335,96.225909998,0.520030729,20.84521883,19.23761942,15.68982343075,-20.25894841825,-47.14128950175,-24.65072,-83.69568341825,0.010527945825
5,23.75,-45.58636633725,-19.0978949375,-0.98363298325,-0.073019086625,379.60640304,0.0003604455,0.3502895929,0.03869951295,9.446063158175,28.63167025175,96.2204826265,0.5106355975,20.68421883175,19.0874926665,15.4851994325,-20.58209658,-47.49762625,-24.41020350175,-84.19830675175,0.00990175
6,0.25,-31.63532952925,-25.193836732,-2.936856844,-0.0593936796,378.935263315,0.000942669325,0.3854430734,0.045788733475,12.0714778355,24.63364708,96.16360451825,0.398233884,25.46336492525,24.9824313275,22.60372633025,-21.7366045,-48.03012708,-21.84151599725,-89.78748042,0.0078792975
6,0.75,-34.5722522975,-23.087075415,-1.5849337364,-0.072292523225,377.2930891,0.000161336725,0.46605344875,0.042395194075,11.44341933,25.94692875,96.1532711095,0.35711922325,25.35094633025,24.82268600275,22.40454225,-22.58313550275,-48.06042417,-22.43978092,-90.48521683025,0.014971458225
6,1.25,-33.6282680665,-20.2856182675,-5.1624799596,-0.074690090175,377.72575162,2.1432991049148,0.3017728819,0.04345481425,11.21402400275,26.00044041725,96.13194115575,0.342533752,25.3405833275,24.65585499725,22.14214482475,-22.74846208,-49.14525375,-23.08543108,-88.92998083275,0.010130581775
6,1.75,-33.8558791775,-38.079170664,-2.5152043879,-0.06834669255,371.88747716,0.00265231735,0.30134133485,0.046827652575,10.93728425,23.88781117,96.12049857025,0.32715314475,25.31954074725,24.52601408025,21.89394582475,-22.69379408275,-49.2431589145,-23.64044725,-87.74443466725,0.01224938955
6,2.25,-42.16066950925,-55.124008756,-2.3361410666,-0.085931216375,364.5974995,0.000425638125,0.233155776125,0.059079095,10.814014745,25.89403133275,96.102429631,0.31640590075,25.29617832475,24.41354257475,21.4939081725,-21.93951108,-49.41689142,-24.04785824725,-87.32369858275,0.00903806645
6,2.75,-49.24011561125,-43.50833822525,-3.7901929865,-0.059813790825,368.62495724,0.00101555025,0.314071087175,0.067750028875,10.71531017,24.11440533275,96.100807908,0.29515733475,25.1316939225,24.17157507475,21.06966232475,-22.11495449725,-49.94551108,-24.0378538355,-88.23662875,0.00539634755
6,3.25,-44.64274066225,-32.15544666025,-6.0341466316,-0.056922300425,368.9951247,0.000303355125,0.268231144175,0.055768958675,10.94662499725,23.75364724725,96.10511921425,0.284813999,24.90358916975,24.0291706725,20.67635782475,-22.2472125855,-50.39218058,-24.31731850275,-88.51123758275,0.011918344775
6,3.75,-39.20878190625,-34.7811842385,-1.918214248475,-0.093614367675,370.036241,0.0011769904,0.203453560025,0.066325365425,11.18424617225,24.59117374725,96.10499526875,0.28416564,24.89212325,23.94845192525,20.53394036025,-22.1997075855,-50.75489866725,-24.8108095,-85.6498475855,-0.00754828305
6,4.25,-41.537288748,-7.6087175664,-2.8000809857,-0.1120297732,365.47738968,0.0023626223,0.27446323885,0.05416197365,11.04758215,23.3959374145,96.103750241,0.27697004125,24.84031900275,23.74358182475,20.34377394475,-22.01776758275,-51.10201375,-25.26109808,-85.06976500275,0.0699657555
6,4.75,-36.04370436725,-69.65440602075,-4.2510767509,-0.068001140275,375.67325474,0.311002147875,0.194441498075,0.060890131175,10.68141545275,20.48786983,96.11230445925,0.273678891,24.695197,23.60641941975,19.99131858,-22.22032050275,-51.14324825,-25.66188975,-81.4370914145,3.10055388395
6,5.25,-29.06689296275,-101.686017585,-4.68638688865,-0.059016307425,382.313580325,2.202174219725,0.2302112859,0.0706608486,10.48680978275,16.62408950275,96.1302634715,0.27747866675,24.6673058275,23.52151441975,19.59246908275,-21.766483,-50.4872358355,-25.72371291725,-71.815358,19.3464321
6,5.75,-31.71556089,-12.982187585,-4.3817615884,-0.060994197225,384.7038557,4.75138576085,0.2081913013,0.074112187875,10.7019450395,15.72125249725,96.16819041425,0.28633755775,24.5247558275,23.43240225,19.33661975275,-20.48714192,-49.12768192,-25.59061674725,-58.63616895225,46.41864474725
6,6.25,-67.311598034,-0.653667107399998,-5.4666309305,-0.083502718525,386.078070625,1.1853753774,0.1036322237,0.08145053045,12.07704650275,18.66794624725,96.172571786,0.315029914,24.49978492525,23.3041675775,19.17336075275,-18.78491150275,-47.06847575275,-25.03773567,1.390110092225,81.001681
6,6.75,3.730061494925,-15.157889931925,-6.839663166525,-0.099299968375,386.7316758725,3.717764387,0.207455842475,0.065308170025,12.82239794475,21.44644541725,96.1966264805,0.3440049075,24.48866050275,23.18734341975,19.28147233275,-16.0666103355,-43.2947575,-23.87918416725,27.9267142145,141.628625395
6,7.25,28.2179829,-67.63379292,-6.7295191185,-0.1561159652,387.7582486,1.622352641675,0.5399463156,0.051654094,13.47029134,21.511620002,96.200856872,0.35641351025,24.327556,23.129224,19.63299867,-13.335928002,-37.928353334,-21.93795067,30.716780134,203.61120666
6,7.75,30.70048952325,-49.6216866216,-8.1647372452,-0.2077879433,387.89804208,3.8826381626,0.5667228336,0.0892498434,13.862998666,18.747988664,96.11960431075,0.346375924,24.20883266,23.078333336,20.25989133,-11.678396664,-30.748074666,-19.444256002,40.2836622,264.12240664
6,8.25,56.006011982,-1.1900624871,-7.4767322346,-0.245980372125,387.06350506,4.5136476488,0.676547853725,0.097129606275,14.13405725275,15.03355075,96.13462034675,0.35567116725,24.1738041725,22.9486666725,20.89025183275,-10.19193892775,-21.13086908,-16.2993033355,48.54369491725,324.4749058275
6,8.75,80.6292234945,13.03441818525,-8.7333024622,-0.23897318085,385.15718536,4.3763135384,0.668806395925,0.103024756425,14.20229666725,10.72983312775,96.135479079,0.375666828,24.05817125275,22.92854167525,21.55185416725,-7.838638124725,-12.1937536395,-13.66543025275,55.90708434225,346.4583133275
6,9.25,78.83021879,24.104304369,-8.6872330724,-0.3283535372,386.19097306,4.68950987795,1.1008882336,0.1733895312,14.303237334,11.067794,96.118956602,0.4585839705,24.025612004,22.980833336,22.153998664,-4.5289652,-7.652695466,-11.627568,98.251470666,401.50710666
6,9.75,102.41875462,-65.619070986,-10.217887114,-0.3349317218,384.86753288,4.81795535695,1.5747372152,0.2410259604,14.73964133,14.0886365974,96.12445813,0.89662805525,24.021666664,23.12666734,23.10961133,-3.074541933,-1.397452053,-9.290219,145.897825974,507.39358664
6,10.25,156.570249756,18.769901688,-10.485385812,-0.3322714182,384.65090302,4.517674305,2.2966314864,0.2854671626,15.265259334,20.125652664,96.125685798,2.498173288,24.022666664,23.18755534,25.498492664,-2.530590133,3.5992055266,-6.635231,234.0598667,719.80618666
6,10.75,140.89751118,16.224730728,-10.622866084,-0.3808557718,384.48971572,4.559965705,1.861521317,0.3252061714,15.331994666,23.964440002,96.14093119,2.565461356,24.025778004,23.36567134,26.478720664,-1.0094222896,12.236036916,-2.6613366976,192.3085267,596.64515336
6,11.25,140.06574206,16.462779134,-11.849763016,-0.4095347596,384.84967864,5.3353474322,2.7435615476,0.3761303342,15.421514,25.368028664,96.138488878,2.614401628,24.04355534,23.665722664,28.09905533,1.7745757266,22.120868864,1.8334692558,180.728106,584.13567334
6,11.75,147.91772638,18.4994745465,-11.024586416,-0.413540968,385.34685368,5.7638725688,2.4797700072,0.3669702774,15.462094,23.79052533,96.14410692,2.744795074,24.199003996,24.138384664,27.952889336,3.4024292666,14.436380002,4.981140933,183.3101333,596.0036067
6,12.25,152.56735766,11.974078572,-9.6227995248,-0.40369221065,385.22748538,6.0412069104,2.7136583334,0.355240197,15.836019334,21.833272666,96.120691506,3.251864532,24.376555324,24.781221336,28.07716667,5.4292128,14.329314002,6.956544667,229.29612266,715.45021336
6,12.75,227.3902804,-16.14586554,-10.0019903936,-0.4066435454,385.37078074,6.0630796416,2.442977437,0.3667362776,16.24879733,19.888833334,96.093341662,3.858149568,24.543336004,25.187948,28.27144533,8.9104433998,18.447102666,7.4556134002,258.57457998,874.97522666
6,13.25,248.79669312,8.157019822,-10.339180728,-0.3747944242,385.71968556,6.1092198116,2.875130808,0.3605087674,16.663622666,20.791268002,96.079136216,4.405264066,24.842721996,25.508781334,30.08600267,10.0953803334,33.842552,12.9359036,327.00505336,1085.6326664
6,13.75,270.20229398,15.179992398,-10.1491283392,-0.3982210418,386.18416832,5.8698829824,2.871010312,0.3472547192,17.083600002,20.957490664,96.06724681,5.070887948,25.02055466,25.650444666,32.667723998,18.988178002,46.90841467,21.261497402,388.83509336,1367.404027
6,14.25,295.6222594925,18.93753919725,-8.7907460986,-0.3508130774,386.4813705,5.6649494466,2.5437029818,0.3698161446,17.725136,20.13821042,96.057348214,6.167978236,25.31434883825,25.96932067,34.24566033,24.097271665,53.20107900075,27.7339388315,416.3836233075,1407.74222565
6,14.75,225.33118166,9.0753016642,-7.9110001994,-0.3683317946,386.17422842,5.8448572472,2.5905527176,0.3472363184,17.873155334,18.817530664,96.047298362,6.17966267,25.49366134,26.354945336,35.59583533,26.47086674925,60.19496733,37.20311992,288.08303334,1073.92833306
6,15.25,230.50627502,4.9418802192,-7.668555101,-0.374615455,386.14757934,5.7612231016,2.4709686982,0.3306422218,17.529667974,25.44715067,96.031434646,6.459278574,25.605112694,26.809779334,35.87172933,26.92041225075,55.50952933,40.92644092,296.41664002,1127.9132864
6,15.75,159.31197996,6.1221040724,-7.9846439656,-0.3635545542,386.30725216,5.7554320968,2.5162353548,0.3051380702,17.096321974,26.534630664,96.027565478,5.93689498,26.00700136,27.348944,35.570221998,25.60826392,53.082275998,41.92757817,149.81701936,619.63480666
6,16.25,148.82801858,5.899423794,-6.9536826398,-0.3473826728,386.6726633,5.8058924554,2.1155539508,0.2838482624,16.586521334,26.911568002,96.018680532,5.633009544,26.354554694,27.76427667,34.784666664,21.57237941925,43.519449998,43.356556666,107.04141324,599.94686
6,16.75,104.318727076,-1.44916015,-6.0194114656,-0.34365066,387.41675296,5.7616396708,1.9398017956,0.2884759312,16.246841974,27.511139334,96.012280108,5.319036244,26.553057336,28.137833336,33.89900133,16.1088261334,29.706401334,35.022491334,69.109208666,385.6916267
6,17.25,78.289019692,-1.0351939678,-5.7816081626,-0.2847240408,386.8653568,4.826956548025,1.7483718978,0.26159532,15.777424664,26.21402933,96.018274494,4.31300165575,26.737163998,28.344,32.76805867,9.120084733,17.9424278,27.065948666,13.143762056,257.67774666
6,17.75,33.9240198782,-5.606233414725,-4.2773248976,-0.2577154926,386.12406556,5.0243165042,1.633590954,0.2174454728,15.034080664,26.328158,96.037483236,3.76884031,26.83783333,28.55033333,31.733112002,3.8134146066,6.7008626036,19.14672267,-43.969354664,178.50692064
6,18.25,7.4874099526,-12.780079168,-2.5505761212,-0.200706643,384.22716472,8.74637729565,1.2060677984,0.1347632314,13.8652224185,30.03019817,96.059018056,2.191913812,27.1737085815,29.01275,30.9871666685,1.157112456925,-2.77035544565,12.131366169325,-98.59522541175,50.67530533075
6,18.75,-22.239550278,-16.789831182,-1.0349440336,-0.1680583864,380.81845148,1.3482145604,0.6062126794,0.0998063958,13.48653733,33.102725336,96.074724802,1.55130254,27.01222333,28.5655,29.79638933,-2.6066528402,-10.284641866,7.859343033,-116.40042666,7.9495267736
6,19.25,-24.11570368,-18.15774559,-0.1480077894,-0.127009933,379.14532272,0.0250794806,0.5526028826,0.0759293982,13.259226002,27.61665867,96.097523718,1.14053735,27.03244267,28.368999998,28.85599933,-8.6350727998,-21.113220664,3.229285345,-114.90923336,0.158381401
6,19.75,-28.766239848,-21.687980232,-1.0009378262,-0.0924762616,375.5627488,0.0008539904,0.4417203564,0.0580896626,13.111634,25.430533998,96.11933336,0.770812912,27.047332,28.261,27.962222002,-14.043018664,-29.63470333,-1.6736768478,-109.30588002,0.0251727746
6,20.25,-48.176688168,-23.841891262,-2.5130135455,-0.0778999602,372.52623582,0.0002330796,0.2438038162,0.056636545,13.048725336,27.799314002,96.139978322,0.690345674,27.05888933,28.070224666,27.248334,-17.71060467,-35.131402666,-5.5517672,-102.49218398,0.024113372
6,20.75,-22.753809092,-21.662873852,-1.2209314918,-0.0599928262,371.70057882,0.000836929,0.3858853348,0.053222873,12.975632002,27.668346666,96.16616827,0.570907712,27.02089067,27.914056664,26.664111336,-19.878293998,-40.178942,-8.6263837998,-99.29178934,0.0217079226
6,21.25,-23.803177754,-22.510309636,-1.6386113802,-0.0580168524,373.73787648,0.0020096178,0.1206715226,0.0513077642,12.917968002,28.41384533,96.181967582,0.553522596,27.014445334,27.651223998,26.20383133,-20.066061998,-42.52269667,-11.510078936,-97.80762666,0.0135074664
6,21.75,-19.647573806,-49.415567664,-2.9382467296,-0.063854608,376.35502798,0.000956019,0.1882049308,0.0428896752,12.88788133,25.396644664,96.181859012,0.572905004,27.009333336,27.501116664,25.856331334,-20.405191336,-43.672126002,-14.093968664,-95.509760004,0.015878816
6,22.25,-24.069253536,-26.487317476,-1.5757277452,-0.0448288016,370.42315778,0.0006646064,0.4237015434,0.0502375834,12.839604,23.67109733,96.16888169,0.519036632,27.007333336,27.274166664,25.468219334,-21.177282,-45.645483998,-16.62241533,-95.310873336,0.002118827734
6,22.75,-26.642584302,-27.453357972,-2.107573548475,-0.0522954046,377.606589695,0.0002085262,0.2411310192,0.0467259764,12.484076666,24.840098664,96.166553194,0.453023334,26.995499998,27.001166664,25.152944666,-21.620336664,-46.928943334,-18.510636666,-93.24987934,0.020923305
6,23.25,-25.082272248,-19.31552967,-1.00505749175,-0.0775219238,381.7717361875,0.0008822792,0.1841994122,0.045115881,12.286955998,26.08233467,96.157516108,0.420473894,26.778500002,26.836610664,24.69966733,-22.005275336,-47.967475336,-19.987025998,-90.375597996,0.0090058456
6,23.75,-22.553933968,-41.84290432625,-3.27087177975,-0.0595358482,381.4241124,0.000447931,0.2226440766,0.0608623618,12.025720002,27.814558664,96.147988968,0.414480644,26.71,26.606,24.121607998,-22.06957133,-48.536146664,-21.139940664,-88.856125336,0.01007
7,0.25,-16.8296742985,-34.86357644,-1.0783810075,-0.050750894725,361.36972911,8.99269163915,0.1439458437,0.040988463675,13.61356283425,31.03549383,96.2457265815,0.50216471625,31.45827083575,31.7218599985,27.0959060015,-20.41397108,-44.21969933,-20.06525625,-77.67784791425,0.020956394075
7,0.75,-26.94918943775,-26.37013974075,-3.554712361525,-0.039904785275,359.5492671325,9.5042544802,0.14021921635,0.043105251125,13.32354416425,29.35183075,96.226092458,0.4718481425,31.40470833,31.40879166575,26.86437741425,-20.4496485015,-44.33098916575,-20.78325141425,-75.80448708,0.025525060575
7,1.25,-34.84814744225,-36.34654133575,-2.3050707854,-0.047276287975,359.702560475,9.207141205575,0.147855325175,0.0523594205,13.2906509985,29.98792416575,96.208366634,0.4525697885,31.38422917,31.07085708,26.66589583575,-20.42785425,-44.39242366425,-21.1321202515,-73.89912491425,0.01963210585
7,1.75,-28.0611966855,-45.9851961675,-3.425869843075,-0.059416676825,360.07066066,9.016676681175,0.21198843115,0.045025943825,13.2932449985,29.0556070015,96.193167102,0.44333445075,31.1986249985,30.74388858425,26.38570008575,-20.23575433575,-43.97806958,-21.43935,-73.20441225,0.018903782425
7,2.25,-28.54667555725,-26.87942522975,-1.038193523,-0.041234829025,361.3296517525,8.6027245874,0.17532441845,0.03902675975,12.94070358,28.86804216425,96.18294311425,0.42583385025,30.98149758575,30.44235416425,26.10985508575,-20.05068216575,-43.88543391425,-21.7803295,-71.86251141425,0.012050775
7,2.75,-36.000971479,-44.14620393,-1.411014498875,-0.054824553225,360.0416974925,8.42322399265,0.2425925414,0.0561047966,12.9792592485,26.83762233,96.171641253,0.41183759125,30.82120591425,30.1910625015,25.77197333575,-19.98342516425,-43.7946360015,-22.04821192,-73.64107742,0.024333261425
7,3.25,-25.970403335,-36.58707454225,-4.58556349415,-0.0492884152,360.9409136125,8.17734807975,0.28944936415,0.0576375829,12.8856802515,25.29917208575,96.173456615,0.38134847525,30.7223894985,29.93939583425,25.36319042,-19.97260567,-43.8318857515,-22.32559016425,-73.5765892515,0.0268493405
7,3.75,-30.142996931,-44.52047881075,-2.77809392945,-0.0764708806,360.54412091,7.83582073365,0.1923974053,0.052944768075,12.8795735,23.7508687515,96.18907228275,0.357546712,30.49914583575,29.72845833575,25.0567747515,-20.06718866425,-43.930453,-22.57593366575,-70.6116095015,0.025657528
7,4.25,-28.3113995205,-25.66966935775,-4.0122254099,-0.05729898605,362.033172765,7.56272269325,0.17858537835,0.0396546285,12.79641641575,24.2827764985,96.1933456355,0.3437160355,30.43054166425,29.54327083425,24.92433483,-19.92791667,-42.23949867,-22.5106160015,-73.18375991575,0.043700534925
7,4.75,-37.83639747225,-57.05105232675,-5.70519070975,-0.0483489323,363.7028518075,7.33596034975,0.23313385565,0.04117362345,12.44443183,22.3433355015,96.20695239575,0.32425757725,30.1996249985,29.29777083,24.87570933575,-19.6969897515,-42.00325433575,-21.87970383575,-74.25426241425,1.35418715135
7,5.25,-41.02360973125,-35.946213989,-2.9871881435,-0.0543103253,358.2605728575,7.706017724,0.240704333975,0.053002080425,12.51872958,22.82895958,96.2341549605,0.3161550335,30.1619375015,29.0750624985,24.53984358575,-19.38368091575,-42.21547608425,-22.01786791575,-70.29100292,22.47502658575
7,5.75,-26.88853291775,-23.40747701,-5.91030189105,-0.086798568875,363.97148295,7.36551783645,0.1632815571,0.049932161825,12.65640933425,22.9253345015,96.26013380625,0.3234132765,30.08122916425,28.92445833425,24.27823983425,-18.15009942,-41.80923916425,-22.06892566575,-58.0028142485,60.48667341425
7,6.25,-6.673218396775,-29.26347836,-5.23977252935,-0.09585495875,367.3784199675,8.8835909785,0.067902985,0.05105257025,12.9853299975,21.332361665,96.279506825,0.3540354275,29.953125,28.6829166675,24.13632,-16.331075835,-40.342276665,-21.7549975,5.5899376075,130.23592415
7,6.75,24.2536548,-0.539809725,-5.1176343,-0.09403678825,380.71701904,10.286476239,0.12943791675,0.07813687875,13.535740835,21.28679167,96.2940830525,0.4107847325,29.802083335,28.49229167,24.3118050025,-14.06521583,-36.528438335,-20.9285800025,35.6688892525,222.0242667
7,7.25,45.6190924,6.2008170853,-4.802910578775,-0.111562101425,382.492772275,10.6340950975,0.47468225105,0.103168402975,14.7669957485,21.12648983425,96.30426074425,0.7320279125,29.64870833575,28.37422917,24.53840208425,-11.9049175015,-31.0537787485,-19.3942499985,87.9048710015,352.2445683425
7,7.75,64.243694602,5.92432904435,-4.99575978925,-0.136080452975,381.7602108525,10.93722162475,0.73223416635,0.097600900725,16.44699266575,18.34748791575,96.31915222875,3.27407694225,29.59947917,28.17370833575,24.87533816425,-9.744260508575,-25.16076092,-17.38106208,118.5163291575,437.8753208575
7,8.25,66.32749824475,8.983329979025,-4.520713552975,-0.179569516925,381.0345586375,10.578987291,0.547368663525,0.1315307727,17.91055817,16.7651492515,96.3172645275,5.27766310675,29.52758333575,28.1006095,25.41528058,-8.26275339985,-18.66619,-15.31835716425,145.1816458,518.2466483575
7,8.75,117.077343805,-35.358650446,-5.65633034555,-0.24391399475,380.54161196,9.57454046385,0.86559531225,0.21869382055,19.20887542,15.20688145,96.3216024595,6.32390780575,29.3130624985,28.03789291425,25.85269283425,-7.324636466575,-10.03587626075,-13.0501922515,219.2374633,720.036779985
7,9.25,114.605612435,-46.15593522,-6.257492085,-0.318867917275,378.82433614,8.282156002375,1.223575997375,0.18400952335,20.7648474985,13.94104423,96.3304413785,8.068284094,29.2925,28.00596317,26.18751641425,-5.247398567,2.544471875325,-10.674968455,239.3297641425,753.832165
7,9.75,153.518184825,-13.0351097482,-5.717188595825,-0.33038478295,376.683452165,9.723617909375,1.53690343205,0.221218217575,21.77900616575,15.55478985,96.33420094125,9.6479032325,29.28191667,27.97931783575,26.7974834985,-4.121272458,15.13428168,-8.41270902485,299.1188192,1011.9673495
7,10.25,157.67546702,-2.0326209916,-6.300903272275,-0.35568878445,375.9044536475,11.5433306,1.830405315925,0.32412054925,22.21510508,15.78331817,96.339971426,10.6506693225,29.15902083425,27.97690116425,29.3255005,-3.10150557515,29.59413616425,-5.995873792,271.5577091425,951.5244191425
7,10.75,202.64812572,-48.548610645,-6.2662412417,-0.3956727299,376.36607474,12.65875767025,2.7343778196,0.3781722526,22.531080999,15.91349333,96.336078326,10.15514391275,29.080166668,28.05749767,32.830944999,-1.541580648,34.767955332,-2.406331098,300.75875331,1003.91609
7,11.25,145.71474963,-34.349252755,-6.3066139984,-0.3947831405,377.28943736,11.59758689,2.9110269955,0.4007284643,22.659540001,17.285531001,96.324527067,10.09411216875,29.05475,28.274110332,34.992417669,0.2990496101,38.837472332,2.571668893,212.88962401,718.17666669
7,11.75,290.50008162,-1.5292970573,-6.1222720294,-0.4307032004,377.22432795,11.959563944,2.8680575794,0.4130188602,22.878672,18.113100001,96.321402435,11.60554452525,29.07491667,28.632333332,37.240613,2.7605531669,45.790376332,5.8380920668,427.76652071,1326.1708999
7,12.25,296.19409791,-6.903168936425,-6.5609648054,-0.4383566036,377.19015539,11.380661837,2.8638399884,0.4434914264,23.024255331,17.770420332,96.296334226,13.159360804,29.159749999,29.15983333,39.215081669,5.1771626,57.38273333,8.9193203999,428.53515669,1400.18847
7,12.75,237.4441368,-40.118535262,-6.6742043732,-0.4532834788,377.60477552,12.648826899,2.624404203,0.4116018224,23.177705331,19.017196669,96.282950376,13.805531809,29.300583331,29.792416668,40.631105331,9.346245467,60.79698933,15.125564,265.56563669,981.6639501
7,13.25,241.56727367,-43.03519337,-6.5392365276,-0.435896916575,377.88862311,13.107952206,3.0329767358,0.4028015301,22.941102669,19.46413367,96.284614483,12.666646828,29.511500001,30.488584001,41.200552999,16.24210667,54.774146332,23.677606668,251.27933331,821.29578332
7,13.75,168.40826242,-29.17232868275,-6.1725512719,-0.4640177747,377.62126519,12.650867209,3.0021900163,0.437374688,23.009679999,19.251733331,96.281022412,11.810828218,29.70633333,31.34886,41.235841,15.146745968,46.96409333,24.786404001,233.15447001,806.20249001
7,14.25,159.05754067,-11.038736980775,-5.9032540638,-0.4070611286,378.20216799,12.982644127,3.0413689711,0.3955459558,22.918760999,19.949914001,96.25568518,13.126024547,30.002916668,31.957414331,41.28967133,18.15098767,33.76020767,20.458078331,190.30465332,709.8055333
7,14.75,173.37357102,-14.36430342975,-5.8354913391,-0.424537824,377.51858142,12.328334837,2.8802048877,0.3916564782,22.878154001,18.120134668,96.249028312,12.635190248,30.182166669,32.757221331,41.6074983325,20.936806332,38.425712,20.405549999,147.474574,650.3188933
7,15.25,139.23508829,-5.6722973686,-5.2103541591,-0.3876734053,377.23017471,12.538880457,2.9810197152,0.4254186698,22.969889,19.35163933,96.241043985,11.61125894,30.51891633,33.229750001,41.7680232485,20.169894,48.063825001,28.547875669,141.6970963,662.48618331
7,15.75,157.03354031,-32.811614175,-5.3201419078,-0.3915093048,376.71935648,9.0731605662,2.8786792143,0.4165455715,22.60555533,14.775101801,96.214252668,10.425977511,30.804830001,33.512556,41.076389331,20.013255668,42.306069332,32.136005669,155.13319669,624.95816331
7,16.25,140.6583685,-17.80671732325,-4.7242660069,-0.3693277791,376.09305037,11.11125134,2.675045617,0.3450918468,21.69394067,16.653875669,96.203250895,10.48252909625,31.18797767,33.901777668,40.491669332,16.198653999,29.643936331,26.607602332,126.97061669,592.70638
7,16.75,74.144739624,-10.1077334351,-3.8545588258,-0.32388771,376.11037377,12.800647028,2.6018737427,0.3446529188,20.89220767,20.42304733,96.186392303,10.116181405,31.39975,34.239555331,39.833861001,13.891597001,25.054361669,27.12263033,19.394284168,271.79052
7,17.25,44.323281849,-33.159756545,-3.4777026243,-0.2689155209,376.35689641,12.553966172,2.5307753346,0.3139334024,20.499299332,20.819590332,96.173816186,9.029646072,31.504583331,34.340608,38.859719001,10.987154768,21.074685332,26.288824668,-3.1235535941,232.27285668
7,17.75,29.385715019,-21.456078925,-2.5118808732,-0.2251775825,376.73581869,13.35145349,1.923815174,0.2673368461,19.905167332,25.514718332,96.183292755,7.45817326,31.739303001,34.463502332,37.94386567,7.6447289669,11.808468568,21.58098467,-39.454274169,157.7694267
7,18.25,22.42061438,-18.253774721,-1.2223477675,-0.2013475381,376.19135817,13.261251951,0.8931392249,0.1894965526,19.062652999,27.996391,96.186221042,5.496532812,32.092331669,34.524220669,36.906251668,2.9498076008,3.5321922758,15.746203001,-81.82400433,95.941504391
7,18.75,-8.1660590454,-26.097107662,-0.274666707,-0.1827207775,374.16685871,13.676993756,1.1254975372,0.1402205634,17.938046669,33.759456669,96.19969863,3.213482105,32.110972999,34.507108,35.860002332,-2.6331381528,-6.2842296351,10.0666550341,-105.89117001,16.586206169
7,19.25,-27.224485994,-18.989362273,-0.1327276611,-0.1491640203,370.44719077,12.011507216,0.5828342613,0.1182844969,16.30022167,33.267104668,96.212704092,2.289592576,32.15916667,34.412186669,34.937389999,-9.9147012001,-18.841813331,5.1269753999,-104.9429233,0.322721967
7,19.75,-28.000010598,-15.46021478,-0.1205053227,-0.0992663814,365.88011619,11.13993578,0.306238753,0.1040480144,15.179769999,30.909642668,96.230899392,1.791814798,32.219666668,34.335499999,33.936112999,-13.758684001,-28.25981667,0.5835409,-100.447882,0.0440977732
7,20.25,-28.250495491,-30.244934829,-0.1165832479,-0.0579252569,362.51464942,11.2736536,0.1596166633,0.0601865319,14.612306999,33.237061669,96.245299108,1.343939311,32.222166669,34.159665669,32.922835999,-16.505356331,-34.62020967,-3.7660942668,-94.095627332,0.0348280289
7,20.75,-23.664871724,-33.541636399,-0.24201250455,-0.0534485839,362.7158683,12.381133501,0.1216949621,0.0558245084,14.357195331,37.829414331,96.258579094,1.106134091,32.213833331,33.905335668,31.960030001,-18.23175333,-38.190713001,-7.5134888669,-90.812230999,0.033503731
7,21.25,-28.453358333,-15.385166107,-1.2602611237,-0.0517107327,361.09343114,11.428122589,0.1018851488,0.0463640995,14.193363,35.22672167,96.264173318,1.023866122,32.180166669,33.58766533,31.086693332,-19.29285133,-39.532909001,-11.536647268,-89.93017267,0.026749999
7,21.75,-17.582005079,-14.203202953,-1.41109282895,-0.037296829,360.79205627,10.393538232,0.2558564657,0.043296009,14.056403,33.078543,96.265155654,1.073908437,32.121499999,33.36691667,30.229416668,-19.925346001,-41.388159331,-13.776251669,-85.959769999,0.0317821959
7,22.25,-20.361345684,-12.982105758,-0.9844562296,-0.0431221453,362.06091775,10.545627258,0.1341713988,0.0390172743,13.853295,31.64056067,96.26371684,0.96823438,32.108446,33.059993001,29.487000001,-20.344723331,-42.681961669,-15.941058999,-85.10824867,0.0303255248
7,22.75,-34.152053202,-20.683000154,-1.4750138735,-0.0514176922,359.11474201,10.1611969216,0.0850897838,0.0469543459,13.865519332,31.139311669,96.263023938,0.746913829,32.057332331,32.742139332,28.716833332,-20.364640332,-43.586095332,-17.58132933,-85.63944433,0.029133666
7,23.25,-62.624535547,-29.547953022,-0.7575000875,-0.0613739191,361.21274895,9.7367756933,0.1802314964,0.0392734895,13.707198999,30.91695867,96.259638346,0.607400079,31.784106668,32.456833331,28.06552467,-20.21239667,-43.957733669,-18.48947867,-82.763580669,0.0169504911
7,23.75,-28.788133276,-38.882242117,-2.5670812317,-0.0568113111,364.01453525,9.7585144913,0.089632844,0.0403081538,13.755555668,31.747427668,96.264808478,0.502457259,31.693083331,32.11794367,27.526665999,-20.281134669,-44.21094033,-19.14321633,-78.90316933,0.0304579439
8,0.25,-29.15446931875,-13.3114621715,-2.003196121925,-0.045317139375,349.5045743675,9.207758712225,0.11540109635,0.044452360625,14.91537158,27.02644767,96.18568572725,0.613854753,31.1051660835,30.96613766825,26.27951325175,-20.88734400175,-45.78252933175,-21.25702841825,-77.82757250175,0.01059406915
8,0.75,-31.58768354075,-27.37554429275,-0.9226047034,-0.056998555525,351.2872698675,8.667206534175,0.1374794096,0.045750651475,14.73582533175,25.8098975,96.1595574495,0.52442220575,30.86205316825,30.65465224825,25.97171633,-20.37852566825,-45.82179091825,-21.7808163335,-77.49557758175,0.025789928
8,1.25,-23.7876960385,-40.922226931,-2.27259319835,-0.074438969925,346.3901522575,8.4276720676,0.136425043675,0.048610347825,14.52847892,26.25010808175,96.14418312475,0.48372839125,30.71263625,30.31845833,25.60726049825,-20.34003899825,-45.7559198335,-22.1621446665,-74.97266783,0.019797694175
8,1.75,-25.0615036485,-39.9139854665,-1.506690569775,-0.05110611355,344.9286350675,8.25573811965,0.162695676175,0.0406652844,14.3781873335,26.53977242,96.13020786875,0.43640462725,30.6877291665,30.07377083175,25.26949592,-20.25510875175,-45.70176333175,-22.4834005,-73.71405399825,0.020989508825
8,2.25,-20.21972863125,-29.3927620775,-2.6890145109,-0.0729737304,345.675910795,8.5006843617,0.156113009175,0.041097026325,14.1510530835,28.47760092,96.13367982975,0.40630375975,30.4662291665,29.821625,24.86945324825,-20.15596000175,-45.33174358,-22.74208608,-71.14626233175,0.024465659825
8,2.75,-24.750505998,-27.327398395,-3.2391797199,-0.064832749425,348.395434385,8.20318515005,0.192799226875,0.0428488889,14.22281967,27.9618391665,96.13472134625,0.37355257225,30.3813333335,29.5717916665,24.5022634165,-19.84392267,-43.52540666825,-22.6365424165,-71.29787908,0.017778153825
8,3.25,-37.765480634,-41.2796674255,-1.4856553096,-0.041580562175,344.914861445,7.8163136271,0.1136161007,0.03857279,13.99693449825,26.6973095835,96.12981728775,0.349649104,30.15437500175,29.41639583,24.20427516825,-19.73231150175,-42.37180158,-21.69824349825,-76.5725555,0.01986385935
8,3.75,-31.539822692,-29.6760852005,-0.92898968325,-0.063787607825,345.56672739,7.705539932225,0.24004802145,0.0628122669,13.95248825175,27.97887158,96.126047798,0.34933435525,30.0936875,29.17210417,23.92585416825,-19.9048865835,-42.17513299825,-21.3643316665,-73.08107242,0.01910242065
8,4.25,-45.2248674935,-30.3875436295,-3.666817636625,-0.09633952145,346.0882066075,7.604177032125,0.1631906781,0.050802463075,13.80513225,27.0744385,96.12912938125,0.3677535215,30.08666667,28.93385416825,23.62877417,-19.71558342,-42.01883892,-21.4840515,-74.72561975175,0.0105940695
8,4.75,-35.02889807425,-42.4104743755,-1.782093225,-0.062996517975,351.9279824825,7.589803446825,0.1876498961,0.04020927675,13.93494341825,26.36476192,96.140519918,0.3872308315,30.02089583,28.7321875,23.40526908,-19.47189975175,-42.96038283175,-21.7679985,-71.4129194165,0.037079225825
8,5.25,-41.859991089,-31.938934414,-2.25257711795,-0.075770420725,352.672077785,7.8438851523,0.122051112275,0.057756911925,13.75955291825,25.9578230835,96.15572031175,0.39737547875,29.82768749825,28.47752083,23.12891491825,-19.29155642,-43.4842884165,-22.2704379165,-65.6015313335,2.814778568
8,5.75,-43.311932339,-26.54233521025,-4.57036019385,-0.079616607125,351.97649089,7.9583199042,0.235256649625,0.050376287875,13.57319008175,25.1426253335,96.1683916795,0.4043865725,29.57762500175,28.26064583,22.85505508,-18.54599500175,-43.355748,-22.47730675,-56.20753817,20.84840256825
8,6.25,-41.53451630775,-35.10790584675,-4.0744096687,-0.0911676134,358.8255183475,8.2134557898,0.082438145875,0.06050849615,13.95075133,24.40809050175,96.18664473475,0.41257372675,29.5111875,28.07449824825,22.73348758,-17.11263975175,-42.212343,-22.22974783175,-30.3777955835,56.71658783175
8,6.75,3.74330501665,-7.12830280805,-3.544443551275,-0.099136659325,361.72433983,10.45910402325,0.164459376525,0.06855395235,14.58371641825,23.7397514165,96.212515853,0.477416292,29.48475000175,27.88492791825,22.75240192,-15.02331758,-39.8782065835,-21.68034858,17.63433294325,109.5937179825
8,7.25,30.5054191845,-2.566884111975,-4.8444495744,-0.122577850825,366.439037885,11.256255161,0.31648411755,0.097578173175,14.95425692,23.207634,96.22707535575,0.70697425325,29.33549999825,27.70571633,22.89656833175,-12.68970308175,-35.7950351665,-20.668856,35.0378460835,178.4946967
8,7.75,49.75085282325,-3.5851920087,-3.8200543537,-0.14317679235,370.8097733425,11.2197188135,0.461829468975,0.07612860365,15.7599254165,20.9603306665,96.21693643675,1.55381853425,29.19766667,27.50635417,23.28665208175,-11.44794858175,-31.1245405,-19.07144975,59.63511866825,231.8036975
8,8.25,65.0724496685,5.659973381325,-4.06372901645,-0.15809273555,373.314579995,10.0886942577,0.587302269475,0.120685669175,16.2476869165,15.90262917,96.2181265965,2.64401456025,29.06737499825,27.318375,23.7938231665,-10.776282455,-25.27486583,-16.73595433,94.27206518425,336.0960274825
8,8.75,98.075441308,6.70352436235,-4.1601725472,-0.18982486625,373.584574475,8.921735392675,0.7899701125,0.11201351515,16.879417,13.95535028465,96.2070802605,3.312387851,29.0362083315,27.21729167,24.3699709985,-9.26400060015,-17.777890167,-13.8778196685,163.8450517,534.7179533
8,9.25,103.991315163,-48.7630440455,-3.56432935645,-0.2564112412,372.937878775,10.11035898075,1.0967929122,0.22483278835,18.651283,16.94794265,96.195323675,5.552185092,28.9605,27.21,25.0002686685,-7.6647613667,-7.57769645,-10.5586384315,218.788794985,704.555901685
8,9.75,222.7822962475,-41.908543094,-4.058653484125,-0.320330700125,373.2337265,9.112820412175,1.3830515264,0.236095265575,19.85661475,14.05530774825,96.186055192,7.88692985775,28.9078541665,27.20037500175,25.51047116825,-6.449776716825,7.536399353825,-7.54890641665,441.7631749825,1334.975171825
8,10.25,231.5424915675,-47.697358346,-4.88945638755,-0.3715453597,372.9836586025,10.8513766975,1.764164292475,0.321298599575,21.26959616825,16.70697433175,96.17629406825,9.87573624325,28.83566667,27.20387499825,26.2385765,-4.458149374825,25.03783241825,-4.001505024825,451.5843216825,1307.166740175
8,10.75,228.073074825,-72.597754732,-4.30595728295,-0.377015239825,373.335933515,12.911381732,1.80715313525,0.425777251525,22.20342617,19.31776258175,96.163128343,10.641695578,28.75974999825,27.21329166825,27.568243,-2.866639683175,41.2679418335,-0.842610374925,403.516485665,1283.082301825
8,11.25,249.917808875,-3.5064157742,-4.449557561925,-0.39279005805,373.26424703,11.7312279365,2.64191058435,0.4035504058,22.3055174985,19.5148463315,96.155111947,10.852982422,28.7409583315,27.32620833,30.3175843315,-1.43079393485,52.20272633,2.17122764685,394.0901905,1128.950988315
8,11.75,236.5267170725,-21.938904978,-4.37853149715,-0.425648295,373.195654145,10.580087693625,2.79453344495,0.44848553325,23.03529367,15.89918625175,96.15567992425,12.2716161045,28.74141666825,27.64032692,33.75191108175,1.0618162245,62.15442517,4.27793174585,524.6959724325,1594.9607855
8,12.25,306.59854391,-31.93066684875,-4.137723593975,-0.4124431033,372.632299895,10.7169327637,3.083498223825,0.46059012005,23.1813073335,15.2601194165,96.158716533,13.247801396,28.7465625,27.9583125,36.3388481665,4.50075524165,50.96485508,11.54360601825,330.555165,1108.6876381925
8,12.75,213.76775218025,-24.598584806,-4.3914364572,-0.42683592385,372.463436005,10.709276505525,2.696803699975,0.477093414525,23.03501449825,15.1238673335,96.15778854125,14.02337920275,28.766125,28.45637499825,38.6196561665,9.077800075175,58.5085913335,15.149947106575,237.268365415,982.621456825
8,13.25,141.38612297,-81.3305570505,-4.9445782573,-0.454206839275,372.82552598,10.405199188125,2.822433667525,0.389798696075,23.52175783,15.12924692,96.1422850395,14.2707212945,28.89214583175,29.11389583,39.4632835,14.09422608,55.76295350175,20.54745774825,266.542590835,955.1988658
8,13.75,126.77969728125,-33.93394115025,-4.2897422493,-0.4285859812,372.7427158625,10.76783068515,1.666215188975,0.35624121565,23.62402233175,15.228622945,96.11606014675,14.76086924375,29.023,29.81977083175,39.73018999825,16.00103367,46.02632775,24.30579800175,259.320612665,865.5552518425
8,14.25,186.5352878975,-11.96567755375,-4.19294342395,-0.409913927275,372.8318604275,11.46730438195,2.385902594625,0.409500694225,23.31710258,14.835774895,96.09583008975,14.127691327,29.2933958335,30.55035474825,40.0136139165,17.12071017,37.43540608,24.28257717,298.3703192,1137.8998443425
8,14.75,81.713514348,-15.53821524125,-3.5851301866,-0.4168520422,372.6333134825,11.988765297325,2.0679057354,0.4194035055,23.29569925175,15.88816693175,96.08043174075,14.1246575405,29.51668750175,31.3275190835,39.89137850175,20.33363641825,36.9775710835,27.3014374165,178.5664163175,695.9397343075
8,15.25,134.8119971725,-52.5720867455,-3.6392859996,-0.380300026825,372.49064185,11.569504485675,2.600317907025,0.41079675105,22.99372325,15.90367248175,96.05673281675,13.3603317585,29.88931250175,31.9863461665,38.9582019165,19.90531117,38.89723233175,31.73919399825,171.25421681575,761.3055918425
8,15.75,129.93846276425,-47.67697692525,-3.60030774555,-0.429041557525,372.44514618,10.721303255225,2.379126397725,0.402207934675,22.3998138335,15.172201868425,96.04244444575,12.239533867,30.09399999825,32.55168750175,37.78517533175,15.325190093425,27.20363008175,29.07475316825,144.178275335,630.1735741825
8,16.25,115.50293270525,-34.0796784045,-3.264086548825,-0.37024107535,371.9858123925,10.04182484735,2.030983736325,0.36446404365,21.72780483175,14.91829344325,96.02760708575,10.33590928225,30.35612500175,32.78388941825,36.92769200175,14.754232918075,19.75023625175,23.7308586665,93.41998149825,456.38866725
8,16.75,84.29665710375,-17.0377720595,-2.59623579965,-0.359497283325,371.5082085675,9.62190596425,1.93615650945,0.292923986425,20.86804566825,14.48825850675,96.0184892125,9.529169127,30.66010416825,32.91468574825,36.31342041825,12.312874031575,16.4576526665,17.089996918075,42.80182075175,429.845780835
8,17.25,56.81726220525,-21.70417635125,-2.155992879925,-0.300702038675,371.3028770125,11.306093783125,2.081867627975,0.314316771925,19.9511651665,16.99140322325,96.0139110115,8.0948874075,30.87614325,33.02819100175,35.6446280835,7.014608158175,11.234794806575,11.079071643425,-24.3751175,301.261418335
8,17.75,28.655583952,-20.6317408655,-1.535030200675,-0.2701878595,369.3146198325,12.51632457575,1.71189815975,0.239998287975,19.0063,20.28739667,96.016329028,6.897546798,31.1285144165,33.06814524825,34.88452316825,5.64177770835,-0.575179217675,6.114968207,-78.86655558,124.8752852675
8,18.25,-11.70852323355,-22.3224830265,-0.71366559725,-0.214242357775,365.35571656,10.2672825717,0.798474993525,0.1369987143,17.8306813335,18.40279033175,96.0230315555,4.7641985005,31.36585416825,33.00535650175,34.12975858175,-1.740374360575,-11.26326162325,3.431276750175,-111.951360835,19.09591319325
8,18.75,-23.918707996,-16.62037813875,0.172008026625,-0.1600848282,359.0424165075,7.88706874715,0.704964225425,0.078201007125,16.85520875175,16.46982008,96.04188784675,3.137453208,31.40666667,33.0077303335,33.35113299825,-9.865515758175,-20.00244583,0.6168601556,-111.0190550175,0.300871583
8,19.25,-39.66942314725,-20.541934994,0.20884483375,-0.127612782175,354.9204250325,7.66435426305,0.2175907175,0.09837080185,16.24061475175,17.18899608,96.06211199225,2.36385230425,31.4087291665,32.87583291825,32.30518224825,-15.2261344165,-27.24114174825,-3.927407422675,-106.7292325675,0.0442633295
8,19.75,-21.18078720675,-21.70912826375,-0.20742200425,-0.120393537175,352.0665413225,7.5411129561,0.244236776175,0.0619015359,15.75339883,18.24818917,96.0888685065,1.831920512,31.41,32.72594275,31.3023814165,-18.2455980835,-32.3870686665,-7.546885167,-100.7366075175,0.033106439
8,20.25,-37.9331468365,-39.39392865,-0.216736512425,-0.08354847035,347.88746897,8.483406567275,0.2979053534,0.052335440575,15.53391458175,21.99802175175,96.1164882205,1.50115602025,31.40947916825,32.62005450175,30.4712355835,-20.20161900175,-36.16971733,-10.70198748,-96.84146808175,0.022446163675
8,20.75,-21.612457301,-13.661687052,-0.185067732225,-0.06661509135,344.5415745025,9.334568495575,0.250068182275,0.050669387325,15.3389053335,25.69625433175,96.13591860025,1.34370392325,31.41066666825,32.4896666665,29.7402291665,-20.88903792,-38.59803466825,-13.2861579165,-92.73351083175,0.026418950325
8,21.25,-24.5082829995,-25.66412272525,-0.118844564,-0.055694804325,342.504148915,10.73518811005,0.16546265405,0.041843448825,15.1230628335,32.89904474825,96.137546768,1.1875217605,31.40785417,32.28202142,29.0694375,-21.22365308175,-40.95958458,-15.26876458,-89.48906875175,0.009898830325
8,21.75,-28.66698793875,-47.28885263975,-0.8020324913,-0.048366864675,340.75845515,11.48705017875,0.1732669118,0.0469799148,15.1803428335,36.72431900175,96.1459142125,1.098206367,31.40697916825,32.02839525,28.58108333,-21.78119742,-42.8931679165,-16.83535300175,-87.319755,0.018539613175
8,22.25,-22.98677907275,-16.109806688,-1.15154385625,-0.029941459425,342.58368131,10.9628522365,0.18510574975,0.0314814937,15.09234824825,33.76613917,96.145341074,1.018678687,31.3929791665,31.78641666825,28.10542467,-22.09567475,-44.20046167,-18.3617964165,-85.69847024825,0.028438466175
8,22.75,-17.39271754575,-30.1586043385,-0.683097481975,-0.0295302973,341.74900466,10.0020666836,0.15968154315,0.039952565875,14.97007308,31.3105895015,96.14056184025,0.9806159035,31.2986458335,31.59415867,27.50787500175,-22.22129750175,-44.99200916825,-19.590597,-85.77458758175,0.01986387965
8,23.25,-18.12710109325,-33.7015051645,-3.32663021205,-0.052687307625,346.849846925,9.8622423175,0.146042462025,0.0287415085,15.0690778335,31.45834066825,96.13617767825,0.75545226975,31.2454166665,31.27358274825,26.87854283,-22.05230850175,-45.16064992,-20.22727858,-82.794163,0.02049290415
8,23.75,-19.15726783925,-20.9941068515,-0.64258711295,-0.049141756925,348.31751774,9.82750046005,0.12602032155,0.0481234762,15.10345625,31.29200683175,96.138275413,0.6667661105,31.10108041825,30.98795716825,26.3746174165,-21.32494524825,-45.56070383175,-20.65689675,-80.4401743335,0.0151958495
9,0.25,-52.0886722665,-29.3341437875,-0.6387497958,-0.1357784978,364.43704492,6.8608576032,0.2319333329,0.0447335743,13.5332885,27.75660167,95.99851352,0.622312063,25.864221,23.8954006685,20.4368520015,-18.687610667,-45.606555167,-26.0343750015,-80.5602493315,0.01986386
9,0.75,-69.8071925785,-23.52063752875,-2.4692830271,-0.09772888005,364.309654775,6.5903886475,0.1432679375,0.0506928623,13.379114167,27.337603667,95.9833594295,0.6121450585,25.6632785,23.6596558315,20.06288967,-18.217549833,-47.0184410015,-27.13749583,-81.0204205015,0.02251236185
9,1.25,-50.898248214,-46.800936218,-0.538506542875,-0.0763596736,365.12164013,6.33600363875,0.2605257452,0.0438691355,13.16628283,26.7134789985,95.9722346945,0.5938860875,25.546688833,23.4365416685,19.7971924985,-17.818838667,-45.8627783315,-27.102383667,-79.628755,0.01589111485
9,1.75,-39.09153472,-23.741024902,-1.41711003455,-0.0704561765,363.1857306125,6.06187035615,0.41265864105,0.0585156132,12.96684683,25.209969,95.9587797275,0.5608258955,25.51933541525,23.19772483,19.56455033,-18.1271270015,-45.0414535015,-26.828007,-77.464393167,0.009269847
9,2.25,-43.672167031,-33.58261883,-1.4707538088,-0.0938498886,362.577524365,5.98691523095,0.24631685565,0.04809664925,12.682709,25.4572799985,95.96721184,0.503723523,25.4356819985,23.0011148315,19.3022195,-17.45999433,-46.4545998315,-27.1777326685,-81.4910206685,0.014434418
9,2.75,-50.590615167,-25.73217022025,-4.03066948085,-0.10587160275,363.1853397875,6.0876263934,0.26640632115,0.039501929,12.4939985015,25.8248051685,95.9661615295,0.4859012645,25.193066,22.783678333,18.92238667,-17.6350435015,-48.08389267,-27.610432667,-81.4756013315,0.01370608915
9,3.25,-62.5001575285,-30.959603212,-1.757694955625,-0.0857591983,363.2259886325,6.0692345797,0.2569394023,0.0514105017,12.4952320015,25.4616893315,95.970754093,0.4714400265,25.09626758475,22.54654367,18.6016565015,-16.72894317,-48.439332167,-27.5794234985,-79.476528833,0.0144344133
9,3.75,-86.9833092805,-25.581102028,-1.96255846075,-0.0992087026,366.859959575,5.866859532525,0.1287254189,0.03744242275,12.694812833,22.2929158315,95.97075726,0.4479171685,24.97741508,22.3069710015,18.3022525,-16.63628317,-47.930979,-27.4466518315,-79.2773264985,0.01635460385
9,4.25,-68.384164019,-22.8815438425,-2.83295199775,-0.056033945575,368.13924426,5.88012403355,0.1955642135,0.0450861013,12.2995380015,21.513693167,95.978507564,0.447079452,24.85598075,22.109025667,18.0711829985,-16.666377833,-46.9642755015,-27.181830667,-80.802571,0.015162757
9,4.75,-63.0765631065,-44.3287323115,-3.1125069857,-0.11840971315,363.71564412,5.8372577458,0.3514449652,0.0464027162,11.89119233,21.456691167,95.998341299,0.432372185,24.68683666475,21.906137667,17.86694317,-16.84380517,-45.7926944985,-26.761498333,-79.282436833,0.02178406085
9,5.25,-41.0636721005,-14.704844076,-2.611148759,-0.1153392983,366.85107414,6.2412647348,0.2632204816,0.0538075575,11.64458817,24.8748245015,96.017914894,0.41575749,24.6349375,21.6682485,17.6342395,-16.668656667,-44.984074667,-26.297567167,-79.170784833,0.476004718
9,5.75,-42.3696199665,-12.613604972,-2.59086060335,-0.0636425017,368.21572196,6.1004184352,0.32495466985,0.0488706111,11.7778921685,22.9891783315,96.040072009,0.3993134845,24.43922916525,21.4723595015,17.5166935,-15.8088696685,-44.6115126685,-26.0761008315,-72.4219355015,7.317986833
9,6.25,-40.4158190295,-34.790700546,-1.0055377347,-0.1700604497,367.7554571275,6.2539295298,0.2239759414,0.04617758225,11.7899656685,23.19146783,96.072901213,0.3952348125,24.28135733,21.2659980015,17.34933917,-14.6554658315,-43.37792767,-25.537637333,-63.2881060015,31.9855601685
9,6.75,-49.8745988845,-21.365432564,-3.1817103325,-0.14432292505,369.40289116,6.489665736775,0.23380490755,0.03819814875,12.306112667,24.76215533,96.118132368,0.4219561155,24.18135416525,21.082969167,17.2639781685,-13.5830865,-41.1451465,-24.54877367,-68.840114,68.59652678
9,7.25,-24.859550513,-21.0595535425,-2.656062276,-0.1349368813,376.71122788,8.79890825095,0.21594522315,0.0756113148,13.6196131685,22.4765103315,96.1286981835,0.4934368945,24.0524374995,20.91156217,17.3040826685,-12.01136833,-38.468440667,-23.3236361685,21.21314645535,155.4703248
9,7.75,15.8357463685,-51.6065223272,-3.3753097968,-0.152562929,380.0293109,9.65570917745,0.29398104785,0.09866845585,15.24624733,18.798839167,96.126220609,0.7139549675,23.85022741525,20.7450025015,17.5469081685,-9.72317361835,-34.0421471685,-21.391683333,38.582379783,226.274213315
9,8.25,27.717136651,-11.007848642625,-4.4512811868,-0.1652980764,381.0519144225,8.8477464303,0.4483246628,0.08644018145,15.99970117,17.1749611685,96.133639075,1.259495905,23.74187658,20.5986629985,17.9161706685,-8.0560742833,-29.058345167,-18.5677973315,46.78498702,279.022310015
9,8.75,58.029746139,-2.6238609105,-3.6458713112,-0.20749418405,380.70597334,8.90243554365,0.31820671925,0.0866636128,17.14037983,16.808678833,96.123748764,1.6665164255,23.6596629995,20.4867548315,18.4855105,-7.474655717,-19.6183206515,-15.0835289985,36.4286182685,332.6810567
9,9.25,27.10754766765,-49.8912726,-4.1465827503,-0.265579889175,379.3470367575,8.7409484881,0.4564363305,0.130234914675,17.80833491525,15.26261716475,96.11165443375,1.31175637875,23.596118002,20.43063808525,19.13894191475,-7.23926895005,-8.21678962495,-11.81655231475,27.2140098255,278.805115
9,9.75,24.912912117,-27.657239995625,-3.423800190875,-0.3090182219,379.4291359925,8.161072624,0.691010595125,0.155691717875,17.91783691475,14.87886983,96.09975306925,1.2227276225,23.493947334,20.4867457505,19.99554833475,-6.589785425,-3.18470697495,-8.384358183475,54.26236170975,330.8601125
9,10.25,39.108292812,-8.984603239,-3.98940867675,-0.3707054401,380.15812493,7.82323060905,0.83104901055,0.2707439429,18.6738576685,16.148877333,96.1178523685,2.6445238915,23.45514583475,20.6328098315,21.0864246685,-5.46352959985,2.1490085005,-4.2428209667,90.3767316685,465.003295015
9,10.75,61.74955547075,-24.34161874325,-3.7221731676,-0.3992276985,380.2298110025,7.653145617,1.22188121835,0.24121421705,19.77204933525,15.49329116475,96.09314460025,4.61249723825,23.43933467,20.81857066475,22.20870658475,-4.198754033475,7.41890713,-0.735134162025,48.86247718475,530.9097183
9,11.25,45.79857387,-49.98367936625,-4.0985099084,-0.4800731512,380.2680039825,7.432335519375,1.80566507335,0.296034439075,20.11647267,14.149133998,96.04984552025,6.38133934575,23.4282295825,21.048442,23.618391998,-2.752422467,12.2356934678,3.2457526668,27.08070747,440.2263333
9,11.75,90.748351144,-15.513154207,-3.9571168995,-0.5281973676,379.91118306,7.18693988395,2.347944452925,0.38210871245,20.7941944995,13.6922772505,96.029169846,6.6336347385,23.42561467,21.48228866475,25.73026483475,0.0232791654999999,13.87463518975,5.395543758475,71.00999081725,540.4740867
9,12.25,91.7343341,-17.260476340875,-4.7316153028,-0.4568953953,378.6489841625,6.59204504695,2.15846729055,0.342308333,21.07962558475,13.63538908525,96.02117612175,6.597347036,23.446107998,22.032884,27.82447725,1.810039084025,10.956454825,5.69471357495,124.4986435,636.3807883475
9,12.75,97.868251133,-7.4004304926,-4.39394890005,-0.4096825685,378.6068701325,7.606982200075,2.529108845125,0.3867512239,21.27331742,15.05895141525,96.0104585335,8.53197463825,23.51933733,22.8051477505,28.98629166475,2.81790649995,18.89426841475,8.178063166475,98.5333774775,645.47048
9,13.25,42.74086097025,-15.580922318,-3.7671568376,-0.46994180095,378.111872995,8.283861641275,2.883560278975,0.392810942425,21.39095408525,16.23010183,95.9491730485,8.00936648925,23.794664666,23.71792425,29.36964583,4.62955452495,22.4544684995,10.320656918275,107.93623066475,443.7660883475
9,13.75,46.96623853275,-12.36942427,-4.16493728275,-0.437822014625,377.7520711175,8.088733789575,1.9447161508,0.350126769725,21.177584,15.05221766525,95.93884467525,6.5983559285,23.989888,24.58428666525,29.8530625,5.2202255998,18.9219872505,12.014766501225,80.65147008,419.171197495
9,14.25,33.0222365795,-39.673067455,-3.378894343,-0.555140958,377.6535745575,8.117795651225,2.0929016026,0.360758737775,21.23225283525,16.07220908525,95.91718402625,6.66322033025,24.312441332,25.4527024995,30.27864583475,4.521931041875,15.23678592,10.991042858525,69.94920866525,324.7827116525
9,14.75,35.635550381825,-19.87360779375,-3.2026056152,-0.42693302825,377.71295446,8.424096732075,1.636225398875,0.3462439116,21.1062687495,16.43218516525,95.88870878275,7.48944926275,24.656719332,26.08638258525,29.7706249995,3.8894315,10.901481731725,9.16964897495,80.97044836475,377.7493242
9,15.25,62.643976966,-13.203345264,-2.60970211675,-0.5105342424,377.88905701,8.2329520655,1.296781907525,0.292769063,20.5387165,15.8306320005,95.8674990005,7.5283853425,25.04427533,26.58783316475,29.22266666475,3.7921979998,10.348719543275,8.640267466525,34.155559421475,239.1230341525
9,15.75,16.26723244525,-47.34935769975,-2.5908358416,-0.3523329962,377.75764253,8.331955204175,1.922783077575,0.335624713125,20.04630708,16.8490470005,95.86233689625,6.37345952075,25.418331332,26.86041766475,28.62091666475,2.972085183475,5.2091760925,6.792263258475,1.01868941275,172.0352591525
9,16.25,22.34216065865,-74.93662375475,-2.3572830962,-0.487968641,377.568090265,8.4937405174,1.9679810367,0.289923041875,19.3938120005,18.39747441475,95.84734117425,4.480305892,25.775666666,26.8933,27.86804733525,1.155712715275,0.0692159032499988,4.90860015,-4.956160123525,127.0727626475
9,16.75,8.105206633825,-40.27643759625,-2.163279423775,-0.3892003208,376.4348978125,9.16299691685,1.7867588355,0.253146944225,18.60615991525,20.2455342495,95.83524544875,3.1890407205,26.01899433475,26.8933,27.03147158525,-0.5290956645,-12.220684906275,2.3411191578,-21.08062058225,99.45747668275
